Vernier Format 2
reposo.txt 10/18/2025 7:16:57
Run 1
Time	Potential	EKG	
T	P	E	
s	mV	mV	

0.000	0.505	0.023	
0.005	-0.204	0.068	
0.010	-0.095	0.077	
0.015	0.483	0.071	
0.020	-0.133	0.090	
0.025	-0.319	0.077	
0.030	0.192	0.030	
0.035	-0.043	0.003	
0.040	-0.428	-0.026	
0.045	-0.107	-0.082	
0.050	0.125	-0.118	
0.055	-0.392	-0.126	
0.060	-0.291	-0.150	
0.065	0.161	-0.172	
0.070	-0.277	-0.162	
0.075	-0.427	-0.165	
0.080	0.032	-0.187	
0.085	-0.111	-0.185	
0.090	-0.459	-0.180	
0.095	-0.128	-0.198	
0.100	0.126	-0.197	
0.105	-0.380	-0.172	
0.110	-0.270	-0.170	
0.115	0.235	-0.169	
0.120	-0.236	-0.139	
0.125	-0.386	-0.127	
0.130	0.125	-0.139	
0.135	-0.032	-0.127	
0.140	-0.406	-0.113	
0.145	-0.055	-0.127	
0.150	0.238	-0.123	
0.155	-0.332	-0.095	
0.160	-0.233	-0.094	
0.165	0.302	-0.099	
0.170	-0.195	-0.075	
0.175	-0.343	-0.069	
0.180	0.219	-0.084	
0.185	0.044	-0.070	
0.190	-0.374	-0.053	
0.195	-0.015	-0.068	
0.200	0.308	-0.067	
0.205	-0.294	-0.040	
0.210	-0.191	-0.041	
0.215	0.390	-0.047	
0.220	-0.148	-0.021	
0.225	-0.317	-0.015	
0.230	0.256	-0.033	
0.235	0.085	-0.023	
0.240	-0.351	-0.010	
0.245	0.035	-0.029	
0.250	0.363	-0.029	
0.255	-0.270	-0.001	
0.260	-0.175	-0.003	
0.265	0.416	-0.013	
0.270	-0.125	0.009	
0.275	-0.297	0.012	
0.280	0.305	-0.008	
0.285	0.151	0.005	
0.290	-0.323	0.024	
0.295	0.072	0.009	
0.300	0.401	0.010	
0.305	-0.250	0.038	
0.310	-0.153	0.033	
0.315	0.466	0.020	
0.320	-0.095	0.042	
0.325	-0.274	0.045	
0.330	0.348	0.024	
0.335	0.198	0.038	
0.340	-0.305	0.058	
0.345	0.101	0.043	
0.350	0.447	0.044	
0.355	-0.224	0.071	
0.360	-0.131	0.065	
0.365	0.518	0.052	
0.370	-0.038	0.076	
0.375	-0.233	0.083	
0.380	0.437	0.068	
0.385	0.314	0.093	
0.390	-0.242	0.125	
0.395	0.198	0.120	
0.400	0.535	0.126	
0.405	-0.169	0.157	
0.410	-0.078	0.149	
0.415	0.575	0.129	
0.420	-0.017	0.144	
0.425	-0.256	0.138	
0.430	0.351	0.101	
0.435	0.197	0.094	
0.440	-0.320	0.093	
0.445	0.041	0.056	
0.450	0.386	0.035	
0.455	-0.258	0.044	
0.460	-0.186	0.025	
0.465	0.408	0.001	
0.470	-0.120	0.013	
0.475	-0.314	0.009	
0.480	0.262	-0.017	
0.485	0.133	-0.010	
0.490	-0.340	0.003	
0.495	0.017	-0.015	
0.500	0.363	-0.019	
0.505	-0.262	0.005	
0.510	-0.117	0.003	
0.515	0.797	0.015	
0.520	0.466	0.108	
0.525	0.210	0.223	
0.530	0.890	0.321	
0.535	0.511	0.425	
0.540	-0.281	0.473	
0.545	-0.005	0.407	
0.550	0.322	0.301	
0.555	-0.296	0.209	
0.560	-0.226	0.102	
0.565	0.357	0.013	
0.570	-0.148	-0.018	
0.575	-0.348	-0.043	
0.580	0.189	-0.077	
0.585	0.087	-0.075	
0.590	-0.367	-0.060	
0.595	-0.046	-0.073	
0.600	0.322	-0.073	
0.605	-0.284	-0.045	
0.610	-0.217	-0.044	
0.615	0.386	-0.051	
0.620	-0.124	-0.025	
0.625	-0.323	-0.016	
0.630	0.238	-0.033	
0.635	0.151	-0.022	
0.640	-0.339	-0.003	
0.645	-0.006	-0.017	
0.650	0.372	-0.020	
0.655	-0.255	0.004	
0.660	-0.192	0.000	
0.665	0.428	-0.011	
0.670	-0.096	0.011	
0.675	-0.306	0.017	
0.680	0.277	-0.003	
0.685	0.190	0.008	
0.690	-0.319	0.027	
0.695	0.038	0.013	
0.700	0.434	0.012	
0.705	-0.224	0.041	
0.710	-0.162	0.040	
0.715	0.480	0.029	
0.720	-0.055	0.052	
0.725	-0.277	0.058	
0.730	0.337	0.038	
0.735	0.262	0.051	
0.740	-0.277	0.075	
0.745	0.120	0.065	
0.750	0.530	0.071	
0.755	-0.163	0.108	
0.760	-0.092	0.111	
0.765	0.613	0.105	
0.770	0.078	0.138	
0.775	-0.203	0.155	
0.780	0.492	0.142	
0.785	0.427	0.166	
0.790	-0.200	0.199	
0.795	0.250	0.192	
0.800	0.663	0.197	
0.805	-0.101	0.232	
0.810	-0.056	0.224	
0.815	0.613	0.198	
0.820	0.023	0.203	
0.825	-0.276	0.186	
0.830	0.277	0.132	
0.835	0.157	0.101	
0.840	-0.366	0.077	
0.845	-0.090	0.021	
0.850	0.250	-0.024	
0.855	-0.332	-0.039	
0.860	-0.303	-0.072	
0.865	0.213	-0.108	
0.870	-0.209	-0.110	
0.875	-0.427	-0.120	
0.880	0.035	-0.150	
0.885	-0.017	-0.154	
0.890	-0.430	-0.148	
0.895	-0.146	-0.165	
0.900	0.213	-0.166	
0.905	-0.335	-0.138	
0.910	-0.296	-0.134	
0.915	0.251	-0.139	
0.920	-0.175	-0.114	
0.925	-0.393	-0.103	
0.930	0.113	-0.118	
0.935	0.064	-0.109	
0.940	-0.393	-0.091	
0.945	-0.099	-0.103	
0.950	0.302	-0.104	
0.955	-0.288	-0.075	
0.960	-0.246	-0.071	
0.965	0.348	-0.076	
0.970	-0.124	-0.049	
0.975	-0.354	-0.039	
0.980	0.186	-0.056	
0.985	0.143	-0.047	
0.990	-0.351	-0.028	
0.995	-0.060	-0.042	
1.000	0.364	-0.046	
1.005	-0.255	-0.021	
1.010	-0.226	-0.021	
1.015	0.390	-0.032	
1.020	-0.093	-0.010	
1.025	-0.332	-0.004	
1.030	0.224	-0.024	
1.035	0.184	-0.016	
1.040	-0.337	0.003	
1.045	-0.034	-0.013	
1.050	0.405	-0.018	
1.055	-0.239	0.008	
1.060	-0.213	0.006	
1.065	0.407	-0.008	
1.070	-0.076	0.010	
1.075	-0.325	0.015	
1.080	0.230	-0.009	
1.085	0.210	-0.003	
1.090	-0.328	0.015	
1.095	-0.027	-0.000	
1.100	0.413	-0.006	
1.105	-0.230	0.018	
1.110	-0.210	0.015	
1.115	0.419	-0.000	
1.120	-0.070	0.018	
1.125	-0.328	0.022	
1.130	0.236	-0.003	
1.135	0.212	0.001	
1.140	-0.328	0.019	
1.145	-0.032	0.002	
1.150	0.415	-0.006	
1.155	-0.230	0.018	
1.160	-0.213	0.014	
1.165	0.421	-0.001	
1.170	-0.055	0.018	
1.175	-0.319	0.024	
1.180	0.255	0.002	
1.185	0.250	0.011	
1.190	-0.299	0.035	
1.195	0.040	0.026	
1.200	0.512	0.030	
1.205	-0.171	0.068	
1.210	-0.160	0.074	
1.215	0.509	0.065	
1.220	0.020	0.088	
1.225	-0.267	0.097	
1.230	0.340	0.075	
1.235	0.320	0.084	
1.240	-0.279	0.106	
1.245	0.018	0.086	
1.250	0.454	0.071	
1.255	-0.221	0.083	
1.260	-0.224	0.063	
1.265	0.390	0.029	
1.270	-0.079	0.029	
1.275	-0.345	0.019	
1.280	0.187	-0.017	
1.285	0.189	-0.021	
1.290	-0.339	-0.009	
1.295	-0.058	-0.026	
1.300	0.412	-0.032	
1.305	-0.227	-0.004	
1.310	-0.220	-0.002	
1.315	0.402	-0.012	
1.320	-0.067	0.008	
1.325	-0.303	0.016	
1.330	0.472	0.007	
1.335	0.741	0.065	
1.340	0.160	0.179	
1.345	0.695	0.283	
1.350	0.995	0.400	
1.355	-0.032	0.506	
1.360	-0.151	0.500	
1.365	0.441	0.410	
1.370	-0.052	0.322	
1.375	-0.326	0.219	
1.380	0.194	0.105	
1.385	0.189	0.041	
1.390	-0.346	0.012	
1.395	-0.089	-0.032	
1.400	0.358	-0.055	
1.405	-0.255	-0.039	
1.410	-0.268	-0.043	
1.415	0.322	-0.059	
1.420	-0.093	-0.043	
1.425	-0.357	-0.037	
1.430	0.155	-0.058	
1.435	0.177	-0.051	
1.440	-0.346	-0.031	
1.445	-0.085	-0.043	
1.450	0.384	-0.047	
1.455	-0.233	-0.020	
1.460	-0.238	-0.017	
1.465	0.386	-0.028	
1.470	-0.050	-0.006	
1.475	-0.337	0.004	
1.480	0.201	-0.016	
1.485	0.236	-0.009	
1.490	-0.319	0.012	
1.495	-0.049	-0.000	
1.500	0.437	-0.005	
1.505	-0.203	0.022	
1.510	-0.212	0.023	
1.515	0.434	0.010	
1.520	-0.009	0.032	
1.525	-0.300	0.042	
1.530	0.267	0.024	
1.535	0.319	0.035	
1.540	-0.277	0.064	
1.545	0.020	0.056	
1.550	0.537	0.055	
1.555	-0.148	0.089	
1.560	-0.163	0.092	
1.565	0.534	0.080	
1.570	0.099	0.105	
1.575	-0.250	0.120	
1.580	0.381	0.105	
1.585	0.445	0.122	
1.590	-0.213	0.157	
1.595	0.123	0.151	
1.600	0.643	0.152	
1.605	-0.079	0.186	
1.610	-0.104	0.186	
1.615	0.620	0.167	
1.620	0.171	0.187	
1.625	-0.226	0.196	
1.630	0.372	0.169	
1.635	0.386	0.166	
1.640	-0.274	0.174	
1.645	-0.038	0.137	
1.650	0.413	0.096	
1.655	-0.241	0.083	
1.660	-0.288	0.045	
1.665	0.253	-0.008	
1.670	-0.142	-0.029	
1.675	-0.425	-0.055	
1.680	-0.008	-0.104	
1.685	0.041	-0.127	
1.690	-0.422	-0.131	
1.695	-0.197	-0.155	
1.700	0.206	-0.166	
1.705	-0.322	-0.146	
1.710	-0.349	-0.146	
1.715	0.174	-0.157	
1.720	-0.165	-0.142	
1.725	-0.432	-0.135	
1.730	-0.002	-0.154	
1.735	0.072	-0.152	
1.740	-0.406	-0.135	
1.745	-0.174	-0.144	
1.750	0.270	-0.144	
1.755	-0.285	-0.114	
1.760	-0.316	-0.106	
1.765	0.247	-0.114	
1.770	-0.113	-0.094	
1.775	-0.390	-0.083	
1.780	0.087	-0.100	
1.785	0.187	-0.091	
1.790	-0.348	-0.065	
1.795	-0.117	-0.069	
1.800	0.367	-0.068	
1.805	-0.236	-0.037	
1.810	-0.273	-0.033	
1.815	0.335	-0.045	
1.820	-0.050	-0.027	
1.825	-0.355	-0.019	
1.830	0.142	-0.040	
1.835	0.229	-0.035	
1.840	-0.329	-0.014	
1.845	-0.098	-0.026	
1.850	0.410	-0.032	
1.855	-0.213	-0.006	
1.860	-0.255	-0.004	
1.865	0.370	-0.019	
1.870	-0.020	-0.001	
1.875	-0.334	0.008	
1.880	0.175	-0.013	
1.885	0.271	-0.008	
1.890	-0.311	0.015	
1.895	-0.079	0.004	
1.900	0.441	-0.004	
1.905	-0.194	0.021	
1.910	-0.241	0.021	
1.915	0.398	0.004	
1.920	-0.002	0.021	
1.925	-0.329	0.028	
1.930	0.192	0.005	
1.935	0.297	0.009	
1.940	-0.303	0.031	
1.945	-0.067	0.019	
1.950	0.457	0.011	
1.955	-0.186	0.035	
1.960	-0.235	0.034	
1.965	0.408	0.015	
1.970	0.021	0.031	
1.975	-0.316	0.040	
1.980	0.233	0.019	
1.985	0.354	0.029	
1.990	-0.265	0.059	
1.995	-0.011	0.055	
2.000	0.530	0.054	
2.005	-0.151	0.085	
2.010	-0.204	0.085	
2.015	0.492	0.067	
2.020	0.101	0.086	
2.025	-0.285	0.098	
2.030	0.251	0.076	
2.035	0.331	0.077	
2.040	-0.303	0.091	
2.045	-0.098	0.064	
2.050	0.413	0.035	
2.055	-0.212	0.038	
2.060	-0.270	0.019	
2.065	0.348	-0.012	
2.070	-0.027	-0.007	
2.075	-0.355	-0.006	
2.080	0.134	-0.032	
2.085	0.261	-0.031	
2.090	-0.322	-0.010	
2.095	-0.108	-0.020	
2.100	0.421	-0.027	
2.105	-0.203	-0.001	
2.110	-0.268	0.001	
2.115	0.343	-0.017	
2.120	0.011	-0.003	
2.125	-0.262	0.009	
2.130	0.564	0.016	
2.135	0.925	0.099	
2.140	0.213	0.243	
2.145	0.476	0.353	
2.150	0.805	0.433	
2.155	-0.107	0.484	
2.160	-0.239	0.435	
2.165	0.358	0.321	
2.170	-0.017	0.227	
2.175	-0.357	0.137	
2.180	0.111	0.039	
2.185	0.245	-0.011	
2.190	-0.328	-0.021	
2.195	-0.131	-0.047	
2.200	0.381	-0.061	
2.205	-0.215	-0.037	
2.210	-0.288	-0.034	
2.215	0.314	-0.049	
2.220	-0.034	-0.032	
2.225	-0.366	-0.024	
2.230	0.102	-0.046	
2.235	0.261	-0.044	
2.240	-0.323	-0.021	
2.245	-0.119	-0.029	
2.250	0.422	-0.034	
2.255	-0.197	-0.006	
2.260	-0.267	-0.002	
2.265	0.366	-0.016	
2.270	0.020	0.002	
2.275	-0.337	0.014	
2.280	0.160	-0.006	
2.285	0.323	-0.000	
2.290	-0.291	0.026	
2.295	-0.085	0.019	
2.300	0.472	0.012	
2.305	-0.165	0.038	
2.310	-0.241	0.040	
2.315	0.419	0.023	
2.320	0.076	0.041	
2.325	-0.313	0.055	
2.330	0.210	0.035	
2.335	0.373	0.042	
2.340	-0.261	0.069	
2.345	-0.047	0.061	
2.350	0.544	0.054	
2.355	-0.117	0.084	
2.360	-0.198	0.088	
2.365	0.506	0.073	
2.370	0.178	0.098	
2.375	-0.261	0.120	
2.380	0.305	0.107	
2.385	0.498	0.120	
2.390	-0.194	0.155	
2.395	0.059	0.152	
2.400	0.662	0.149	
2.405	-0.041	0.182	
2.410	-0.148	0.185	
2.415	0.576	0.163	
2.420	0.232	0.179	
2.425	-0.255	0.190	
2.430	0.264	0.160	
2.435	0.399	0.147	
2.440	-0.279	0.149	
2.445	-0.120	0.110	
2.450	0.384	0.064	
2.455	-0.227	0.049	
2.460	-0.329	0.014	
2.465	0.204	-0.037	
2.470	-0.101	-0.056	
2.475	-0.433	-0.075	
2.480	-0.046	-0.117	
2.485	0.117	-0.135	
2.490	-0.399	-0.129	
2.495	-0.227	-0.144	
2.500	0.250	-0.152	
2.505	-0.279	-0.129	
2.510	-0.367	-0.125	
2.515	0.165	-0.139	
2.520	-0.105	-0.127	
2.525	-0.428	-0.119	
2.530	-0.024	-0.139	
2.535	0.165	-0.138	
2.540	-0.372	-0.115	
2.545	-0.200	-0.118	
2.550	0.305	-0.120	
2.555	-0.241	-0.090	
2.560	-0.334	-0.083	
2.565	0.247	-0.095	
2.570	-0.040	-0.077	
2.575	-0.381	-0.064	
2.580	0.049	-0.081	
2.585	0.256	-0.075	
2.590	-0.325	-0.048	
2.595	-0.154	-0.051	
2.600	0.392	-0.054	
2.605	-0.197	-0.026	
2.610	-0.299	-0.021	
2.615	0.308	-0.037	
2.620	0.011	-0.023	
2.625	-0.361	-0.013	
2.630	0.087	-0.035	
2.635	0.291	-0.034	
2.640	-0.310	-0.011	
2.645	-0.134	-0.019	
2.650	0.431	-0.026	
2.655	-0.178	0.001	
2.660	-0.285	0.004	
2.665	0.331	-0.014	
2.670	0.043	-0.002	
2.675	-0.351	0.008	
2.680	0.102	-0.014	
2.685	0.317	-0.015	
2.690	-0.299	0.008	
2.695	-0.131	-0.001	
2.700	0.444	-0.011	
2.705	-0.165	0.013	
2.710	-0.279	0.015	
2.715	0.341	-0.004	
2.720	0.064	0.009	
2.725	-0.335	0.020	
2.730	0.133	-0.001	
2.735	0.349	0.002	
2.740	-0.287	0.029	
2.745	-0.117	0.020	
2.750	0.459	0.010	
2.755	-0.154	0.032	
2.760	-0.271	0.032	
2.765	0.367	0.011	
2.770	0.085	0.024	
2.775	-0.334	0.035	
2.780	0.126	0.013	
2.785	0.357	0.013	
2.790	-0.279	0.036	
2.795	-0.117	0.026	
2.800	0.468	0.014	
2.805	-0.151	0.037	
2.810	-0.268	0.036	
2.815	0.376	0.015	
2.820	0.110	0.029	
2.825	-0.323	0.043	
2.830	0.149	0.024	
2.835	0.384	0.027	
2.840	-0.265	0.054	
2.845	-0.111	0.045	
2.850	0.482	0.032	
2.855	-0.136	0.053	
2.860	-0.262	0.051	
2.865	0.375	0.027	
2.870	0.102	0.038	
2.875	-0.329	0.048	
2.880	0.137	0.024	
2.885	0.384	0.024	
2.890	-0.264	0.048	
2.895	-0.105	0.040	
2.900	0.495	0.030	
2.905	-0.124	0.054	
2.910	-0.252	0.056	
2.915	0.410	0.037	
2.920	0.160	0.054	
2.925	-0.299	0.072	
2.930	0.184	0.056	
2.935	0.437	0.062	
2.940	-0.232	0.091	
2.945	-0.069	0.084	
2.950	0.558	0.074	
2.955	-0.073	0.100	
2.960	-0.203	0.104	
2.965	0.489	0.088	
2.970	0.230	0.110	
2.975	-0.281	0.131	
2.980	0.169	0.110	
2.985	0.383	0.100	
2.990	-0.279	0.106	
2.995	-0.143	0.075	
3.000	0.430	0.040	
3.005	-0.166	0.041	
3.010	-0.300	0.024	
3.015	0.297	-0.010	
3.020	0.046	-0.010	
3.025	-0.358	-0.006	
3.030	0.049	-0.032	
3.035	0.306	-0.037	
3.040	-0.305	-0.016	
3.045	-0.168	-0.024	
3.050	0.405	-0.035	
3.055	-0.180	-0.012	
3.060	-0.297	-0.011	
3.065	0.472	-0.022	
3.070	0.486	0.029	
3.075	0.043	0.117	
3.080	0.829	0.204	
3.085	0.995	0.333	
3.090	-0.047	0.463	
3.095	-0.029	0.482	
3.100	0.495	0.420	
3.105	-0.149	0.350	
3.110	-0.308	0.245	
3.115	0.267	0.126	
3.120	0.020	0.055	
3.125	-0.386	0.006	
3.130	-0.011	-0.054	
3.135	0.248	-0.081	
3.140	-0.332	-0.072	
3.145	-0.206	-0.083	
3.150	0.349	-0.092	
3.155	-0.195	-0.065	
3.160	-0.339	-0.058	
3.165	0.235	-0.073	
3.170	0.020	-0.060	
3.175	-0.380	-0.047	
3.180	0.014	-0.066	
3.185	0.297	-0.065	
3.190	-0.310	-0.039	
3.195	-0.182	-0.042	
3.200	0.401	-0.049	
3.205	-0.163	-0.022	
3.210	-0.305	-0.015	
3.215	0.300	-0.031	
3.220	0.078	-0.016	
3.225	-0.354	-0.001	
3.230	0.064	-0.019	
3.235	0.360	-0.019	
3.240	-0.277	0.008	
3.245	-0.143	0.005	
3.250	0.468	-0.003	
3.255	-0.127	0.025	
3.260	-0.281	0.031	
3.265	0.351	0.013	
3.270	0.143	0.027	
3.275	-0.314	0.044	
3.280	0.136	0.028	
3.285	0.436	0.034	
3.290	-0.232	0.066	
3.295	-0.096	0.064	
3.300	0.553	0.057	
3.305	-0.066	0.087	
3.310	-0.229	0.094	
3.315	0.463	0.078	
3.320	0.274	0.100	
3.325	-0.250	0.128	
3.330	0.258	0.119	
3.335	0.573	0.132	
3.340	-0.166	0.171	
3.345	-0.014	0.169	
3.350	0.663	0.158	
3.355	0.032	0.186	
3.360	-0.182	0.190	
3.365	0.511	0.166	
3.370	0.277	0.175	
3.375	-0.277	0.183	
3.380	0.139	0.147	
3.385	0.393	0.120	
3.390	-0.285	0.114	
3.395	-0.198	0.073	
3.400	0.335	0.023	
3.405	-0.210	0.007	
3.410	-0.381	-0.024	
3.415	0.122	-0.074	
3.420	-0.064	-0.094	
3.425	-0.441	-0.108	
3.430	-0.105	-0.143	
3.435	0.166	-0.156	
3.440	-0.377	-0.141	
3.445	-0.268	-0.147	
3.450	0.245	-0.153	
3.455	-0.242	-0.129	
3.460	-0.396	-0.123	
3.465	0.126	-0.139	
3.470	-0.041	-0.130	
3.475	-0.427	-0.119	
3.480	-0.081	-0.137	
3.485	0.210	-0.138	
3.490	-0.349	-0.113	
3.495	-0.241	-0.114	
3.500	0.312	-0.117	
3.505	-0.201	-0.089	
3.510	-0.358	-0.079	
3.515	0.197	-0.093	
3.520	0.023	-0.080	
3.525	-0.390	-0.066	
3.530	-0.032	-0.083	
3.535	0.285	-0.084	
3.540	-0.317	-0.059	
3.545	-0.210	-0.061	
3.550	0.370	-0.068	
3.555	-0.165	-0.042	
3.560	-0.334	-0.035	
3.565	0.241	-0.052	
3.570	0.072	-0.041	
3.575	-0.366	-0.027	
3.580	0.012	-0.045	
3.585	0.340	-0.046	
3.590	-0.284	-0.019	
3.595	-0.182	-0.021	
3.600	0.419	-0.029	
3.605	-0.140	-0.003	
3.610	-0.310	0.002	
3.615	0.288	-0.018	
3.620	0.120	-0.006	
3.625	-0.343	0.009	
3.630	0.044	-0.009	
3.635	0.381	-0.010	
3.640	-0.267	0.016	
3.645	-0.171	0.011	
3.650	0.442	-0.001	
3.655	-0.122	0.020	
3.660	-0.306	0.022	
3.665	0.305	-0.001	
3.670	0.140	0.008	
3.675	-0.337	0.023	
3.680	0.056	0.004	
3.685	0.395	0.002	
3.690	-0.261	0.027	
3.695	-0.165	0.021	
3.700	0.456	0.008	
3.705	-0.111	0.030	
3.710	-0.294	0.032	
3.715	0.315	0.009	
3.720	0.158	0.019	
3.725	-0.329	0.035	
3.730	0.067	0.016	
3.735	0.415	0.014	
3.740	-0.244	0.040	
3.745	-0.156	0.035	
3.750	0.476	0.023	
3.755	-0.098	0.044	
3.760	-0.293	0.046	
3.765	0.325	0.022	
3.770	0.172	0.031	
3.775	-0.323	0.045	
3.780	0.081	0.026	
3.785	0.431	0.024	
3.790	-0.242	0.051	
3.795	-0.149	0.045	
3.800	0.488	0.032	
3.805	-0.095	0.053	
3.810	-0.290	0.054	
3.815	0.334	0.029	
3.820	0.194	0.038	
3.825	-0.308	0.054	
3.830	0.111	0.038	
3.835	0.462	0.040	
3.840	-0.224	0.071	
3.845	-0.134	0.068	
3.850	0.517	0.055	
3.855	-0.064	0.077	
3.860	-0.264	0.079	
3.865	0.404	0.057	
3.870	0.282	0.074	
3.875	-0.268	0.101	
3.880	0.161	0.091	
3.885	0.495	0.095	
3.890	-0.229	0.122	
3.895	-0.160	0.107	
3.900	0.439	0.075	
3.905	-0.120	0.073	
3.910	-0.322	0.053	
3.915	0.261	0.010	
3.920	0.125	0.002	
3.925	-0.354	0.005	
3.930	0.008	-0.021	
3.935	0.363	-0.029	
3.940	-0.273	-0.006	
3.945	-0.197	-0.011	
3.950	0.407	-0.024	
3.955	-0.124	-0.003	
3.960	-0.320	0.001	
3.965	0.259	-0.021	
3.970	0.143	-0.012	
3.975	-0.279	0.007	
3.980	0.384	0.013	
3.985	0.998	0.083	
3.990	0.300	0.225	
3.995	0.349	0.344	
4.000	0.832	0.423	
4.005	0.003	0.477	
4.010	-0.300	0.440	
4.015	0.253	0.325	
4.020	0.113	0.223	
4.025	-0.363	0.137	
4.030	-0.026	0.040	
4.035	0.335	-0.019	
4.040	-0.293	-0.028	
4.045	-0.226	-0.049	
4.050	0.354	-0.069	
4.055	-0.156	-0.051	
4.060	-0.349	-0.046	
4.065	0.200	-0.066	
4.070	0.088	-0.057	
4.075	-0.370	-0.042	
4.080	-0.038	-0.059	
4.085	0.335	-0.061	
4.090	-0.288	-0.035	
4.095	-0.218	-0.037	
4.100	0.389	-0.047	
4.105	-0.130	-0.023	
4.110	-0.334	-0.017	
4.115	0.235	-0.036	
4.120	0.128	-0.027	
4.125	-0.351	-0.011	
4.130	-0.005	-0.028	
4.135	0.386	-0.030	
4.140	-0.259	-0.002	
4.145	-0.191	-0.003	
4.150	0.433	-0.012	
4.155	-0.099	0.012	
4.160	-0.313	0.018	
4.165	0.288	-0.002	
4.170	0.195	0.009	
4.175	-0.322	0.030	
4.180	0.055	0.016	
4.185	0.453	0.017	
4.190	-0.220	0.049	
4.195	-0.151	0.049	
4.200	0.506	0.040	
4.205	-0.041	0.065	
4.210	-0.265	0.073	
4.215	0.390	0.055	
4.220	0.302	0.074	
4.225	-0.267	0.103	
4.230	0.158	0.095	
4.235	0.567	0.102	
4.240	-0.156	0.139	
4.245	-0.079	0.140	
4.250	0.630	0.129	
4.255	0.059	0.157	
4.260	-0.210	0.167	
4.265	0.476	0.146	
4.270	0.364	0.160	
4.275	-0.247	0.181	
4.280	0.145	0.159	
4.285	0.498	0.144	
4.290	-0.230	0.152	
4.295	-0.204	0.120	
4.300	0.366	0.070	
4.305	-0.157	0.049	
4.310	-0.390	0.014	
4.315	0.081	-0.045	
4.320	-0.020	-0.077	
4.325	-0.441	-0.097	
4.330	-0.149	-0.138	
4.335	0.177	-0.158	
4.340	-0.363	-0.146	
4.345	-0.317	-0.153	
4.350	0.195	-0.166	
4.355	-0.226	-0.148	
4.360	-0.432	-0.144	
4.365	0.043	-0.164	
4.370	-0.018	-0.160	
4.375	-0.433	-0.148	
4.380	-0.136	-0.162	
4.385	0.221	-0.161	
4.390	-0.335	-0.133	
4.395	-0.282	-0.128	
4.400	0.279	-0.130	
4.405	-0.175	-0.103	
4.410	-0.387	-0.092	
4.415	0.142	-0.107	
4.420	0.072	-0.096	
4.425	-0.390	-0.078	
4.430	-0.082	-0.091	
4.435	0.306	-0.092	
4.440	-0.294	-0.065	
4.445	-0.242	-0.064	
4.450	0.357	-0.071	
4.455	-0.131	-0.046	
4.460	-0.352	-0.037	
4.465	0.198	-0.055	
4.470	0.126	-0.046	
4.475	-0.363	-0.029	
4.480	-0.047	-0.045	
4.485	0.357	-0.049	
4.490	-0.274	-0.024	
4.495	-0.232	-0.027	
4.500	0.375	-0.040	
4.505	-0.119	-0.021	
4.510	-0.343	-0.017	
4.515	0.219	-0.039	
4.520	0.154	-0.031	
4.525	-0.351	-0.013	
4.530	-0.027	-0.029	
4.535	0.384	-0.032	
4.540	-0.255	-0.005	
4.545	-0.213	-0.007	
4.550	0.424	-0.018	
4.555	-0.085	0.005	
4.560	-0.322	0.012	
4.565	0.258	-0.008	
4.570	0.203	0.001	
4.575	-0.329	0.021	
4.580	0.001	0.006	
4.585	0.422	0.002	
4.590	-0.235	0.028	
4.595	-0.195	0.024	
4.600	0.445	0.010	
4.605	-0.066	0.030	
4.610	-0.308	0.034	
4.615	0.277	0.012	
4.620	0.221	0.020	
4.625	-0.322	0.039	
4.630	0.014	0.022	
4.635	0.453	0.017	
4.640	-0.217	0.044	
4.645	-0.180	0.041	
4.650	0.471	0.028	
4.655	-0.052	0.049	
4.660	-0.305	0.053	
4.665	0.285	0.028	
4.670	0.236	0.033	
4.675	-0.317	0.050	
4.680	0.017	0.032	
4.685	0.447	0.024	
4.690	-0.223	0.048	
4.695	-0.186	0.042	
4.700	0.469	0.026	
4.705	-0.043	0.046	
4.710	-0.297	0.051	
4.715	0.296	0.029	
4.720	0.248	0.037	
4.725	-0.308	0.057	
4.730	0.029	0.041	
4.735	0.474	0.035	
4.740	-0.204	0.062	
4.745	-0.166	0.059	
4.750	0.503	0.045	
4.755	-0.017	0.068	
4.760	-0.282	0.075	
4.765	0.338	0.054	
4.770	0.306	0.066	
4.775	-0.273	0.091	
4.780	0.108	0.080	
4.785	0.572	0.084	
4.790	-0.157	0.121	
4.795	-0.133	0.122	
4.800	0.530	0.106	
4.805	-0.024	0.120	
4.810	-0.316	0.112	
4.815	0.238	0.068	
4.820	0.189	0.050	
4.825	-0.346	0.045	
4.830	-0.049	0.008	
4.835	0.380	-0.014	
4.840	-0.256	-0.002	
4.845	-0.229	-0.012	
4.850	0.389	-0.030	
4.855	-0.095	-0.012	
4.860	-0.342	-0.008	
4.865	0.209	-0.030	
4.870	0.184	-0.024	
4.875	-0.345	-0.006	
4.880	-0.055	-0.021	
4.885	0.415	-0.027	
4.890	-0.159	0.004	
4.895	0.061	0.025	
4.900	1.034	0.077	
4.905	0.617	0.215	
4.910	0.041	0.350	
4.915	0.602	0.412	
4.920	0.372	0.441	
4.925	-0.305	0.422	
4.930	-0.037	0.322	
4.935	0.380	0.213	
4.940	-0.259	0.142	
4.945	-0.250	0.063	
4.950	0.340	-0.007	
4.955	-0.122	-0.026	
4.960	-0.370	-0.043	
4.965	0.140	-0.077	
4.970	0.122	-0.078	
4.975	-0.374	-0.064	
4.980	-0.099	-0.078	
4.985	0.332	-0.082	
4.990	-0.276	-0.055	
4.995	-0.256	-0.054	
5.000	0.338	-0.064	
5.005	-0.116	-0.043	
5.010	-0.360	-0.037	
5.015	0.168	-0.057	
5.020	0.157	-0.051	
5.025	-0.355	-0.033	
5.030	-0.063	-0.046	
5.035	0.384	-0.048	
5.040	-0.252	-0.020	
5.045	-0.236	-0.018	
5.050	0.392	-0.030	
5.055	-0.079	-0.008	
5.060	-0.339	-0.001	
5.065	0.209	-0.023	
5.070	0.215	-0.015	
5.075	-0.328	0.005	
5.080	-0.032	-0.007	
5.085	0.437	-0.010	
5.090	-0.218	0.019	
5.095	-0.204	0.021	
5.100	0.450	0.009	
5.105	-0.027	0.033	
5.110	-0.303	0.043	
5.115	0.294	0.024	
5.120	0.306	0.037	
5.125	-0.282	0.066	
5.130	0.058	0.059	
5.135	0.550	0.062	
5.140	-0.153	0.099	
5.145	-0.134	0.103	
5.150	0.585	0.094	
5.155	0.108	0.125	
5.160	-0.233	0.144	
5.165	0.428	0.129	
5.170	0.442	0.148	
5.175	-0.215	0.180	
5.180	0.171	0.171	
5.185	0.637	0.170	
5.190	-0.122	0.200	
5.195	-0.139	0.189	
5.200	0.518	0.154	
5.205	-0.012	0.150	
5.210	-0.322	0.128	
5.215	0.194	0.072	
5.220	0.158	0.042	
5.225	-0.380	0.025	
5.230	-0.136	-0.022	
5.235	0.256	-0.059	
5.240	-0.322	-0.064	
5.245	-0.323	-0.087	
5.250	0.213	-0.118	
5.255	-0.177	-0.114	
5.260	-0.427	-0.118	
5.265	0.030	-0.144	
5.270	0.047	-0.145	
5.275	-0.415	-0.132	
5.280	-0.157	-0.145	
5.285	0.258	-0.146	
5.290	-0.310	-0.117	
5.295	-0.303	-0.112	
5.300	0.261	-0.119	
5.305	-0.146	-0.098	
5.310	-0.401	-0.089	
5.315	0.090	-0.108	
5.320	0.110	-0.102	
5.325	-0.386	-0.084	
5.330	-0.122	-0.096	
5.335	0.334	-0.098	
5.340	-0.265	-0.068	
5.345	-0.270	-0.062	
5.350	0.335	-0.069	
5.355	-0.098	-0.046	
5.360	-0.361	-0.037	
5.365	0.158	-0.056	
5.370	0.189	-0.048	
5.375	-0.348	-0.027	
5.380	-0.079	-0.038	
5.385	0.387	-0.042	
5.390	-0.242	-0.016	
5.395	-0.247	-0.016	
5.400	0.375	-0.029	
5.405	-0.072	-0.011	
5.410	-0.346	-0.005	
5.415	0.189	-0.028	
5.420	0.216	-0.022	
5.425	-0.329	-0.002	
5.430	-0.053	-0.015	
5.435	0.422	-0.019	
5.440	-0.226	0.009	
5.445	-0.236	0.008	
5.450	0.398	-0.007	
5.455	-0.056	0.010	
5.460	-0.340	0.014	
5.465	0.209	-0.011	
5.470	0.239	-0.007	
5.475	-0.328	0.013	
5.480	-0.050	-0.001	
5.485	0.437	-0.007	
5.490	-0.217	0.019	
5.495	-0.226	0.018	
5.500	0.424	0.003	
5.505	-0.029	0.023	
5.510	-0.322	0.030	
5.515	0.236	0.008	
5.520	0.273	0.015	
5.525	-0.310	0.038	
5.530	-0.037	0.024	
5.535	0.456	0.016	
5.540	-0.204	0.041	
5.545	-0.217	0.037	
5.550	0.441	0.019	
5.555	-0.014	0.037	
5.560	-0.319	0.043	
5.565	0.242	0.020	
5.570	0.280	0.025	
5.575	-0.306	0.046	
5.580	-0.032	0.031	
5.585	0.469	0.022	
5.590	-0.198	0.047	
5.595	-0.215	0.044	
5.600	0.445	0.026	
5.605	-0.014	0.042	
5.610	-0.323	0.047	
5.615	0.235	0.021	
5.620	0.285	0.024	
5.625	-0.305	0.045	
5.630	-0.029	0.030	
5.635	0.472	0.022	
5.640	-0.200	0.047	
5.645	-0.218	0.044	
5.650	0.434	0.025	
5.655	-0.015	0.041	
5.660	-0.320	0.045	
5.665	0.241	0.019	
5.670	0.283	0.024	
5.675	-0.306	0.045	
5.680	-0.031	0.030	
5.685	0.479	0.022	
5.690	-0.197	0.048	
5.695	-0.221	0.046	
5.700	0.437	0.027	
5.705	-0.006	0.042	
5.710	-0.320	0.047	
5.715	0.233	0.022	
5.720	0.285	0.025	
5.725	-0.311	0.045	
5.730	-0.040	0.029	
5.735	0.477	0.020	
5.740	-0.192	0.045	
5.745	-0.209	0.044	
5.750	0.463	0.028	
5.755	0.020	0.049	
5.760	-0.305	0.060	
5.765	0.265	0.039	
5.770	0.334	0.047	
5.775	-0.282	0.073	
5.780	0.000	0.061	
5.785	0.538	0.056	
5.790	-0.151	0.086	
5.795	-0.177	0.087	
5.800	0.509	0.072	
5.805	0.032	0.092	
5.810	-0.320	0.096	
5.815	0.186	0.061	
5.820	0.223	0.045	
5.825	-0.339	0.042	
5.830	-0.087	0.008	
5.835	0.389	-0.016	
5.840	-0.244	-0.004	
5.845	-0.267	-0.014	
5.850	0.343	-0.037	
5.855	-0.076	-0.025	
5.860	-0.364	-0.023	
5.865	0.143	-0.048	
5.870	0.213	-0.045	
5.875	-0.340	-0.025	
5.880	-0.095	-0.036	
5.885	0.392	-0.042	
5.890	-0.198	-0.014	
5.895	-0.114	-0.003	
5.900	0.881	0.024	
5.905	0.639	0.138	
5.910	0.131	0.274	
5.915	0.741	0.366	
5.920	0.546	0.444	
5.925	-0.267	0.472	
5.930	-0.061	0.397	
5.935	0.412	0.287	
5.940	-0.233	0.205	
5.945	-0.265	0.112	
5.950	0.331	0.025	
5.955	-0.081	-0.007	
5.960	-0.372	-0.031	
5.965	0.114	-0.070	
5.970	0.177	-0.075	
5.975	-0.357	-0.058	
5.980	-0.119	-0.069	
5.985	0.355	-0.073	
5.990	-0.252	-0.046	
5.995	-0.279	-0.044	
6.000	0.326	-0.057	
6.005	-0.069	-0.039	
6.010	-0.360	-0.031	
6.015	0.143	-0.051	
6.020	0.223	-0.044	
6.025	-0.332	-0.021	
6.030	-0.089	-0.030	
6.035	0.410	-0.034	
6.040	-0.221	-0.006	
6.045	-0.250	-0.004	
6.050	0.387	-0.018	
6.055	-0.018	0.002	
6.060	-0.331	0.012	
6.065	0.201	-0.007	
6.070	0.282	0.001	
6.075	-0.306	0.026	
6.080	-0.053	0.016	
6.085	0.472	0.011	
6.090	-0.183	0.039	
6.095	-0.217	0.040	
6.100	0.451	0.026	
6.105	0.037	0.048	
6.110	-0.305	0.059	
6.115	0.255	0.040	
6.120	0.340	0.048	
6.125	-0.276	0.073	
6.130	0.009	0.063	
6.135	0.555	0.060	
6.140	-0.133	0.093	
6.145	-0.160	0.098	
6.150	0.552	0.087	
6.155	0.140	0.115	
6.160	-0.249	0.135	
6.165	0.367	0.120	
6.170	0.457	0.134	
6.175	-0.212	0.166	
6.180	0.102	0.157	
6.185	0.639	0.153	
6.190	-0.098	0.182	
6.195	-0.160	0.175	
6.200	0.509	0.144	
6.205	0.053	0.144	
6.210	-0.322	0.131	
6.215	0.161	0.081	
6.220	0.198	0.050	
6.225	-0.374	0.035	
6.230	-0.168	-0.013	
6.235	0.239	-0.055	
6.240	-0.320	-0.066	
6.245	-0.367	-0.095	
6.250	0.131	-0.134	
6.255	-0.183	-0.142	
6.260	-0.464	-0.152	
6.265	-0.060	-0.183	
6.270	0.015	-0.190	
6.275	-0.442	-0.181	
6.280	-0.229	-0.193	
6.285	0.181	-0.197	
6.290	-0.331	-0.171	
6.295	-0.369	-0.166	
6.300	0.165	-0.175	
6.305	-0.168	-0.157	
6.310	-0.445	-0.147	
6.315	-0.018	-0.165	
6.320	0.081	-0.162	
6.325	-0.407	-0.142	
6.330	-0.183	-0.149	
6.335	0.270	-0.148	
6.340	-0.285	-0.117	
6.345	-0.325	-0.109	
6.350	0.239	-0.117	
6.355	-0.110	-0.097	
6.360	-0.396	-0.087	
6.365	0.070	-0.104	
6.370	0.174	-0.097	
6.375	-0.360	-0.073	
6.380	-0.134	-0.079	
6.385	0.366	-0.080	
6.390	-0.244	-0.049	
6.395	-0.285	-0.044	
6.400	0.329	-0.055	
6.405	-0.060	-0.036	
6.410	-0.372	-0.028	
6.415	0.123	-0.050	
6.420	0.226	-0.047	
6.425	-0.337	-0.026	
6.430	-0.104	-0.036	
6.435	0.416	-0.040	
6.440	-0.220	-0.012	
6.445	-0.265	-0.009	
6.450	0.369	-0.023	
6.455	-0.018	-0.005	
6.460	-0.346	0.004	
6.465	0.168	-0.017	
6.470	0.276	-0.012	
6.475	-0.316	0.011	
6.480	-0.081	0.000	
6.485	0.456	-0.006	
6.490	-0.191	0.022	
6.495	-0.242	0.023	
6.500	0.408	0.008	
6.505	0.009	0.025	
6.510	-0.334	0.034	
6.515	0.190	0.010	
6.520	0.309	0.013	
6.525	-0.299	0.036	
6.530	-0.058	0.024	
6.535	0.485	0.017	
6.540	-0.177	0.045	
6.545	-0.233	0.045	
6.550	0.434	0.027	
6.555	0.046	0.045	
6.560	-0.314	0.055	
6.565	0.226	0.033	
6.570	0.335	0.038	
6.575	-0.291	0.062	
6.580	-0.050	0.048	
6.585	0.489	0.037	
6.590	-0.178	0.059	
6.595	-0.233	0.055	
6.600	0.427	0.032	
6.605	0.038	0.046	
6.610	-0.316	0.052	
6.615	0.227	0.029	
6.620	0.337	0.034	
6.625	-0.290	0.059	
6.630	-0.053	0.046	
6.635	0.494	0.036	
6.640	-0.172	0.060	
6.645	-0.233	0.056	
6.650	0.430	0.035	
6.655	0.046	0.049	
6.660	-0.316	0.056	
6.665	0.233	0.033	
6.670	0.375	0.040	
6.675	-0.259	0.069	
6.680	-0.011	0.064	
6.685	0.550	0.062	
6.690	-0.139	0.093	
6.695	-0.198	0.095	
6.700	0.495	0.076	
6.705	0.123	0.095	
6.710	-0.264	0.109	
6.715	0.334	0.093	
6.720	0.450	0.107	
6.725	-0.236	0.140	
6.730	-0.008	0.129	
6.735	0.523	0.112	
6.740	-0.178	0.123	
6.745	-0.255	0.102	
6.750	0.364	0.057	
6.755	-0.023	0.046	
6.760	-0.357	0.030	
6.765	0.146	-0.011	
6.770	0.256	-0.020	
6.775	-0.335	-0.006	
6.780	-0.119	-0.022	
6.785	0.405	-0.034	
6.790	-0.217	-0.012	
6.795	-0.274	-0.013	
6.800	0.340	-0.030	
6.805	-0.031	-0.016	
6.810	-0.367	-0.010	
6.815	0.119	-0.035	
6.820	0.332	-0.032	
6.825	-0.166	0.004	
6.830	0.430	0.041	
6.835	1.198	0.139	
6.840	0.445	0.312	
6.845	0.101	0.441	
6.850	0.622	0.481	
6.855	0.075	0.478	
6.860	-0.339	0.408	
6.865	0.130	0.276	
6.870	0.242	0.168	
6.875	-0.339	0.097	
6.880	-0.139	0.017	
6.885	0.366	-0.037	
6.890	-0.238	-0.040	
6.895	-0.305	-0.053	
6.900	0.285	-0.076	
6.905	-0.069	-0.064	
6.910	-0.387	-0.057	
6.915	0.072	-0.079	
6.920	0.206	-0.077	
6.925	-0.355	-0.056	
6.930	-0.145	-0.065	
6.935	0.372	-0.070	
6.940	-0.226	-0.043	
6.945	-0.285	-0.038	
6.950	0.328	-0.050	
6.955	-0.032	-0.031	
6.960	-0.363	-0.021	
6.965	0.128	-0.041	
6.970	0.267	-0.036	
6.975	-0.322	-0.011	
6.980	-0.111	-0.019	
6.985	0.427	-0.025	
6.990	-0.200	0.001	
6.995	-0.262	0.004	
7.000	0.383	-0.012	
7.005	0.021	0.007	
7.010	-0.334	0.019	
7.015	0.180	0.000	
7.020	0.323	0.007	
7.025	-0.293	0.033	
7.030	-0.066	0.025	
7.035	0.503	0.020	
7.040	-0.149	0.050	
7.045	-0.217	0.055	
7.050	0.476	0.043	
7.055	0.130	0.068	
7.060	-0.273	0.090	
7.065	0.294	0.078	
7.070	0.442	0.093	
7.075	-0.226	0.127	
7.080	0.047	0.122	
7.085	0.643	0.121	
7.090	-0.061	0.156	
7.095	-0.146	0.162	
7.100	0.596	0.147	
7.105	0.250	0.172	
7.110	-0.217	0.193	
7.115	0.387	0.177	
7.120	0.521	0.186	
7.125	-0.207	0.213	
7.130	0.021	0.193	
7.135	0.559	0.165	
7.140	-0.154	0.167	
7.145	-0.259	0.136	
7.150	0.317	0.080	
7.155	-0.064	0.052	
7.160	-0.410	0.018	
7.165	-0.011	-0.043	
7.170	0.111	-0.080	
7.175	-0.410	-0.093	
7.180	-0.227	-0.125	
7.185	0.218	-0.148	
7.190	-0.308	-0.136	
7.195	-0.383	-0.141	
7.200	0.133	-0.161	
7.205	-0.149	-0.154	
7.210	-0.451	-0.150	
7.215	-0.050	-0.171	
7.220	0.096	-0.171	
7.225	-0.406	-0.152	
7.230	-0.209	-0.157	
7.235	0.277	-0.156	
7.240	-0.273	-0.123	
7.245	-0.340	-0.112	
7.250	0.223	-0.120	
7.255	-0.095	-0.101	
7.260	-0.407	-0.090	
7.265	0.027	-0.109	
7.270	0.192	-0.106	
7.275	-0.355	-0.082	
7.280	-0.160	-0.086	
7.285	0.357	-0.087	
7.290	-0.227	-0.057	
7.295	-0.302	-0.050	
7.300	0.299	-0.061	
7.305	-0.032	-0.044	
7.310	-0.366	-0.033	
7.315	0.110	-0.052	
7.320	0.271	-0.046	
7.325	-0.320	-0.019	
7.330	-0.119	-0.025	
7.335	0.427	-0.029	
7.340	-0.198	-0.001	
7.345	-0.276	0.001	
7.350	0.352	-0.016	
7.355	0.009	-0.001	
7.360	-0.348	0.007	
7.365	0.148	-0.015	
7.370	0.306	-0.011	
7.375	-0.305	0.014	
7.380	-0.102	0.005	
7.385	0.448	-0.003	
7.390	-0.185	0.021	
7.395	-0.261	0.021	
7.400	0.373	0.002	
7.405	0.030	0.016	
7.410	-0.337	0.024	
7.415	0.160	0.002	
7.420	0.322	0.004	
7.425	-0.294	0.028	
7.430	-0.090	0.018	
7.435	0.471	0.010	
7.440	-0.172	0.035	
7.445	-0.250	0.036	
7.450	0.399	0.017	
7.455	0.052	0.032	
7.460	-0.325	0.042	
7.465	0.177	0.019	
7.470	0.337	0.022	
7.475	-0.288	0.045	
7.480	-0.085	0.033	
7.485	0.480	0.022	
7.490	-0.163	0.045	
7.495	-0.247	0.044	
7.500	0.408	0.024	
7.505	0.062	0.039	
7.510	-0.328	0.048	
7.515	0.177	0.025	
7.520	0.344	0.026	
7.525	-0.290	0.048	
7.530	-0.087	0.035	
7.535	0.479	0.023	
7.540	-0.166	0.045	
7.545	-0.249	0.043	
7.550	0.399	0.022	
7.555	0.055	0.035	
7.560	-0.326	0.044	
7.565	0.175	0.020	
7.570	0.351	0.022	
7.575	-0.279	0.047	
7.580	-0.079	0.037	
7.585	0.488	0.028	
7.590	-0.163	0.052	
7.595	-0.249	0.050	
7.600	0.410	0.028	
7.605	0.076	0.042	
7.610	-0.311	0.053	
7.615	0.213	0.033	
7.620	0.392	0.041	
7.625	-0.262	0.071	
7.630	-0.056	0.064	
7.635	0.523	0.055	
7.640	-0.136	0.080	
7.645	-0.213	0.080	
7.650	0.498	0.062	
7.655	0.163	0.085	
7.660	-0.273	0.106	
7.665	0.268	0.092	
7.670	0.402	0.099	
7.675	-0.276	0.120	
7.680	-0.095	0.098	
7.685	0.445	0.068	
7.690	-0.185	0.068	
7.695	-0.273	0.047	
7.700	0.346	0.010	
7.705	0.011	0.010	
7.710	-0.352	0.009	
7.715	0.131	-0.019	
7.720	0.302	-0.020	
7.725	-0.308	0.003	
7.730	-0.116	-0.006	
7.735	0.439	-0.014	
7.740	-0.185	0.011	
7.745	-0.274	0.012	
7.750	0.352	-0.007	
7.755	0.102	0.009	
7.760	-0.185	0.033	
7.765	0.727	0.059	
7.770	1.113	0.171	
7.775	0.297	0.345	
7.780	0.431	0.465	
7.785	0.742	0.526	
7.790	-0.113	0.542	
7.795	-0.256	0.462	
7.800	0.349	0.325	
7.805	0.004	0.218	
7.810	-0.363	0.125	
7.815	0.085	0.027	
7.820	0.248	-0.024	
7.825	-0.329	-0.033	
7.830	-0.153	-0.057	
7.835	0.366	-0.071	
7.840	-0.221	-0.048	
7.845	-0.310	-0.046	
7.850	0.283	-0.062	
7.855	-0.026	-0.048	
7.860	-0.374	-0.038	
7.865	0.073	-0.059	
7.870	0.255	-0.057	
7.875	-0.328	-0.034	
7.880	-0.148	-0.042	
7.885	0.393	-0.048	
7.890	-0.203	-0.023	
7.895	-0.287	-0.020	
7.900	0.326	-0.035	
7.905	0.008	-0.019	
7.910	-0.351	-0.008	
7.915	0.116	-0.028	
7.920	0.297	-0.024	
7.925	-0.305	0.001	
7.930	-0.117	-0.007	
7.935	0.442	-0.014	
7.940	-0.174	0.012	
7.945	-0.268	0.015	
7.950	0.355	-0.003	
7.955	0.041	0.011	
7.960	-0.335	0.021	
7.965	0.157	-0.000	
7.970	0.349	0.005	
7.975	-0.273	0.033	
7.980	-0.075	0.028	
7.985	0.511	0.025	
7.990	-0.134	0.056	
7.995	-0.224	0.062	
8.000	0.453	0.047	
8.005	0.145	0.070	
8.010	-0.274	0.089	
8.015	0.290	0.077	
8.020	0.466	0.093	
8.025	-0.220	0.129	
8.030	0.009	0.125	
8.035	0.613	0.119	
8.040	-0.076	0.147	
8.045	-0.180	0.147	
8.050	0.526	0.124	
8.055	0.194	0.139	
8.060	-0.271	0.150	
8.065	0.235	0.123	
8.070	0.375	0.113	
8.075	-0.293	0.119	
8.080	-0.139	0.084	
8.085	0.355	0.042	
8.090	-0.244	0.028	
8.095	-0.352	-0.006	
8.100	0.163	-0.058	
8.105	-0.128	-0.080	
8.110	-0.460	-0.102	
8.115	-0.093	-0.146	
8.120	0.059	-0.168	
8.125	-0.422	-0.166	
8.130	-0.256	-0.183	
8.135	0.192	-0.191	
8.140	-0.300	-0.168	
8.145	-0.386	-0.162	
8.150	0.133	-0.173	
8.155	-0.122	-0.157	
8.160	-0.438	-0.146	
8.165	-0.044	-0.162	
8.170	0.136	-0.157	
8.175	-0.381	-0.133	
8.180	-0.204	-0.135	
8.185	0.305	-0.134	
8.190	-0.250	-0.101	
8.195	-0.335	-0.091	
8.200	0.233	-0.101	
8.205	-0.055	-0.084	
8.210	-0.396	-0.072	
8.215	0.035	-0.091	
8.220	0.224	-0.088	
8.225	-0.339	-0.064	
8.230	-0.163	-0.068	
8.235	0.376	-0.071	
8.240	-0.204	-0.042	
8.245	-0.297	-0.035	
8.250	0.305	-0.048	
8.255	0.004	-0.031	
8.260	-0.354	-0.018	
8.265	0.094	-0.037	
8.270	0.276	-0.034	
8.275	-0.316	-0.011	
8.280	-0.137	-0.021	
8.285	0.416	-0.030	
8.290	-0.185	-0.005	
8.295	-0.284	-0.003	
8.300	0.337	-0.020	
8.305	0.030	-0.006	
8.310	-0.343	0.005	
8.315	0.130	-0.015	
8.320	0.323	-0.011	
8.325	-0.293	0.015	
8.330	-0.114	0.008	
8.335	0.450	-0.000	
8.340	-0.169	0.024	
8.345	-0.268	0.024	
8.350	0.366	0.004	
8.355	0.047	0.017	
8.360	-0.340	0.026	
8.365	0.139	0.003	
8.370	0.335	0.003	
8.375	-0.285	0.027	
8.380	-0.099	0.018	
8.385	0.469	0.010	
8.390	-0.162	0.035	
8.395	-0.264	0.036	
8.400	0.373	0.015	
8.405	0.070	0.027	
8.410	-0.325	0.037	
8.415	0.172	0.016	
8.420	0.378	0.021	
8.425	-0.265	0.051	
8.430	-0.082	0.045	
8.435	0.517	0.038	
8.440	-0.125	0.065	
8.445	-0.226	0.069	
8.450	0.447	0.052	
8.455	0.134	0.071	
8.460	-0.287	0.087	
8.465	0.258	0.070	
8.470	0.462	0.081	
8.475	-0.233	0.115	
8.480	-0.061	0.108	
8.485	0.498	0.091	
8.490	-0.163	0.101	
8.495	-0.282	0.083	
8.500	0.322	0.040	
8.505	0.012	0.028	
8.510	-0.357	0.017	
8.515	0.082	-0.020	
8.520	0.273	-0.031	
8.525	-0.319	-0.016	
8.530	-0.146	-0.030	
8.535	0.404	-0.040	
8.540	-0.194	-0.017	
8.545	-0.294	-0.015	
8.550	0.319	-0.032	
8.555	0.023	-0.018	
8.560	-0.355	-0.008	
8.565	0.073	-0.029	
8.570	0.308	-0.030	
8.575	-0.220	-0.003	
8.580	0.239	0.016	
8.585	1.085	0.084	
8.590	0.480	0.235	
8.595	0.148	0.368	
8.600	0.675	0.432	
8.605	0.139	0.459	
8.610	-0.354	0.416	
8.615	0.056	0.294	
8.620	0.256	0.180	
8.625	-0.325	0.103	
8.630	-0.163	0.020	
8.635	0.364	-0.038	
8.640	-0.218	-0.043	
8.645	-0.319	-0.056	
8.650	0.265	-0.079	
8.655	-0.027	-0.067	
8.660	-0.381	-0.057	
8.665	0.046	-0.076	
8.670	0.247	-0.073	
8.675	-0.332	-0.049	
8.680	-0.162	-0.054	
8.685	0.384	-0.060	
8.690	-0.197	-0.032	
8.695	-0.300	-0.027	
8.700	0.297	-0.043	
8.705	0.004	-0.029	
8.710	-0.364	-0.019	
8.715	0.085	-0.040	
8.720	0.300	-0.039	
8.725	-0.306	-0.013	
8.730	-0.137	-0.019	
8.735	0.428	-0.025	
8.740	-0.171	0.002	
8.745	-0.270	0.006	
8.750	0.366	-0.009	
8.755	0.078	0.010	
8.760	-0.331	0.027	
8.765	0.149	0.010	
8.770	0.367	0.015	
8.775	-0.268	0.043	
8.780	-0.081	0.038	
8.785	0.518	0.032	
8.790	-0.120	0.062	
8.795	-0.227	0.067	
8.800	0.450	0.052	
8.805	0.155	0.073	
8.810	-0.284	0.092	
8.815	0.253	0.077	
8.820	0.474	0.087	
8.825	-0.213	0.122	
8.830	-0.002	0.119	
8.835	0.628	0.114	
8.840	-0.043	0.147	
8.845	-0.162	0.153	
8.850	0.564	0.137	
8.855	0.271	0.161	
8.860	-0.233	0.184	
8.865	0.322	0.166	
8.870	0.515	0.170	
8.875	-0.213	0.193	
8.880	-0.052	0.170	
8.885	0.498	0.136	
8.890	-0.171	0.130	
8.895	-0.308	0.096	
8.900	0.235	0.036	
8.905	-0.081	0.004	
8.910	-0.442	-0.030	
8.915	-0.087	-0.090	
8.920	0.072	-0.127	
8.925	-0.428	-0.140	
8.930	-0.276	-0.169	
8.935	0.152	-0.190	
8.940	-0.323	-0.179	
8.945	-0.428	-0.183	
8.950	0.043	-0.204	
8.955	-0.175	-0.200	
8.960	-0.506	-0.199	
8.965	-0.154	-0.224	
8.970	-0.012	-0.233	
8.975	-0.464	-0.224	
8.980	-0.308	-0.236	
8.985	0.123	-0.242	
8.990	-0.326	-0.218	
8.995	-0.418	-0.210	
9.000	0.093	-0.217	
9.005	-0.128	-0.196	
9.010	-0.445	-0.178	
9.015	-0.044	-0.186	
9.020	0.177	-0.171	
9.025	-0.358	-0.135	
9.030	-0.191	-0.126	
9.035	0.341	-0.117	
9.040	-0.220	-0.078	
9.045	-0.319	-0.064	
9.050	0.287	-0.071	
9.055	0.014	-0.049	
9.060	-0.357	-0.032	
9.065	0.119	-0.044	
9.070	0.338	-0.032	
9.075	-0.279	0.004	
9.080	-0.095	0.006	
9.085	0.511	0.008	
9.090	-0.131	0.044	
9.095	-0.239	0.054	
9.100	0.437	0.041	
9.105	0.149	0.063	
9.110	-0.288	0.083	
9.115	0.238	0.069	
9.120	0.444	0.078	
9.125	-0.233	0.110	
9.130	-0.041	0.102	
9.135	0.576	0.091	
9.140	-0.087	0.116	
9.145	-0.206	0.116	
9.150	0.495	0.095	
9.155	0.195	0.112	
9.160	-0.268	0.128	
9.165	0.262	0.109	
9.170	0.469	0.113	
9.175	-0.224	0.139	
9.180	-0.037	0.125	
9.185	0.573	0.108	
9.190	-0.093	0.127	
9.195	-0.210	0.121	
9.200	0.485	0.094	
9.205	0.192	0.107	
9.210	-0.273	0.122	
9.215	0.259	0.102	
9.220	0.462	0.106	
9.225	-0.217	0.133	
9.230	-0.021	0.122	
9.235	0.596	0.110	
9.240	-0.079	0.134	
9.245	-0.198	0.132	
9.250	0.501	0.108	
9.255	0.210	0.123	
9.260	-0.265	0.138	
9.265	0.264	0.117	
9.270	0.469	0.119	
9.275	-0.218	0.144	
9.280	-0.031	0.129	
9.285	0.579	0.112	
9.290	-0.090	0.131	
9.295	-0.204	0.125	
9.300	0.500	0.099	
9.305	0.216	0.115	
9.310	-0.255	0.133	
9.315	0.282	0.116	
9.320	0.486	0.124	
9.325	-0.218	0.152	
9.330	-0.034	0.139	
9.335	0.559	0.119	
9.340	-0.104	0.133	
9.345	-0.215	0.122	
9.350	0.479	0.091	
9.355	0.171	0.101	
9.360	-0.291	0.112	
9.365	0.186	0.086	
9.370	0.360	0.078	
9.375	-0.297	0.088	
9.380	-0.145	0.059	
9.385	0.402	0.025	
9.390	-0.194	0.025	
9.395	-0.299	0.008	
9.400	0.294	-0.025	
9.405	0.009	-0.023	
9.410	-0.361	-0.020	
9.415	0.082	-0.044	
9.420	0.293	-0.043	
9.425	-0.311	-0.018	
9.430	-0.146	-0.025	
9.435	0.408	-0.032	
9.440	-0.192	-0.008	
9.445	-0.310	-0.008	
9.450	0.296	-0.030	
9.455	0.137	-0.016	
9.460	-0.169	0.012	
9.465	0.675	0.046	
9.470	0.994	0.154	
9.475	0.070	0.305	
9.480	0.140	0.382	
9.485	0.527	0.390	
9.490	-0.191	0.368	
9.495	-0.323	0.281	
9.500	0.233	0.159	
9.505	-0.055	0.073	
9.510	-0.410	0.005	
9.515	-0.024	-0.072	
9.520	0.168	-0.109	
9.525	-0.374	-0.111	
9.530	-0.212	-0.127	
9.535	0.294	-0.135	
9.540	-0.250	-0.108	
9.545	-0.352	-0.101	
9.550	0.203	-0.113	
9.555	-0.072	-0.099	
9.560	-0.413	-0.090	
9.565	-0.015	-0.112	
9.570	0.197	-0.113	
9.575	-0.354	-0.091	
9.580	-0.191	-0.096	
9.585	0.334	-0.100	
9.590	-0.224	-0.071	
9.595	-0.331	-0.065	
9.600	0.248	-0.079	
9.605	-0.034	-0.065	
9.610	-0.389	-0.056	
9.615	0.030	-0.077	
9.620	0.244	-0.077	
9.625	-0.331	-0.054	
9.630	-0.163	-0.060	
9.635	0.381	-0.064	
9.640	-0.200	-0.036	
9.645	-0.302	-0.030	
9.650	0.303	-0.045	
9.655	0.014	-0.029	
9.660	-0.358	-0.017	
9.665	0.093	-0.036	
9.670	0.315	-0.033	
9.675	-0.291	-0.005	
9.680	-0.116	-0.008	
9.685	0.471	-0.010	
9.690	-0.140	0.022	
9.695	-0.241	0.032	
9.700	0.428	0.021	
9.705	0.157	0.048	
9.710	-0.284	0.074	
9.715	0.251	0.065	
9.720	0.479	0.081	
9.725	-0.210	0.120	
9.730	0.001	0.120	
9.735	0.628	0.117	
9.740	-0.052	0.150	
9.745	-0.182	0.154	
9.750	0.520	0.132	
9.755	0.206	0.146	
9.760	-0.277	0.157	
9.765	0.201	0.126	
9.770	0.355	0.110	
9.775	-0.305	0.109	
9.780	-0.166	0.070	
9.785	0.320	0.023	
9.790	-0.253	0.006	
9.795	-0.366	-0.029	
9.800	0.143	-0.080	
9.805	-0.119	-0.099	
9.810	-0.453	-0.116	
9.815	-0.085	-0.154	
9.820	0.088	-0.169	
9.825	-0.410	-0.160	
9.830	-0.252	-0.171	
9.835	0.207	-0.178	
9.840	-0.294	-0.154	
9.845	-0.395	-0.150	
9.850	0.117	-0.165	
9.855	-0.124	-0.155	
9.860	-0.451	-0.148	
9.865	-0.070	-0.168	
9.870	0.131	-0.168	
9.875	-0.383	-0.146	
9.880	-0.223	-0.148	
9.885	0.276	-0.147	
9.890	-0.258	-0.116	
9.895	-0.357	-0.107	
9.900	0.206	-0.118	
9.905	-0.061	-0.102	
9.910	-0.406	-0.090	
9.915	0.009	-0.108	
9.920	0.221	-0.104	
9.925	-0.346	-0.078	
9.930	-0.178	-0.081	
9.935	0.361	-0.083	
9.940	-0.207	-0.053	
9.945	-0.313	-0.046	
9.950	0.288	-0.059	
9.955	0.000	-0.042	
9.960	-0.370	-0.030	
9.965	0.073	-0.049	
9.970	0.293	-0.047	
9.975	-0.311	-0.021	
9.980	-0.143	-0.026	
9.985	0.421	-0.032	
9.990	-0.186	-0.005	
9.995	-0.291	-0.002	
10.000	0.334	-0.021	
10.005	0.041	-0.007	
10.010	-0.349	0.005	
10.015	0.108	-0.016	
10.020	0.317	-0.015	
10.025	-0.305	0.009	
10.030	-0.133	-0.001	
10.035	0.445	-0.011	
10.040	-0.169	0.013	
10.045	-0.276	0.014	
10.050	0.360	-0.004	
10.055	0.062	0.011	
10.060	-0.339	0.023	
10.065	0.139	0.003	
10.070	0.351	0.006	
10.075	-0.284	0.032	
10.080	-0.114	0.023	
10.085	0.477	0.013	
10.090	-0.149	0.038	
10.095	-0.261	0.039	
10.100	0.386	0.019	
10.105	0.085	0.033	
10.110	-0.326	0.045	
10.115	0.161	0.024	
10.120	0.376	0.026	
10.125	-0.271	0.052	
10.130	-0.090	0.043	
10.135	0.503	0.033	
10.140	-0.143	0.058	
10.145	-0.252	0.058	
10.150	0.407	0.036	
10.155	0.111	0.050	
10.160	-0.314	0.062	
10.165	0.181	0.041	
10.170	0.398	0.044	
10.175	-0.267	0.070	
10.180	-0.082	0.060	
10.185	0.512	0.047	
10.190	-0.134	0.070	
10.195	-0.249	0.068	
10.200	0.405	0.044	
10.205	0.101	0.055	
10.210	-0.320	0.063	
10.215	0.172	0.039	
10.220	0.386	0.038	
10.225	-0.268	0.062	
10.230	-0.089	0.051	
10.235	0.515	0.040	
10.240	-0.128	0.064	
10.245	-0.241	0.065	
10.250	0.431	0.046	
10.255	0.125	0.062	
10.260	-0.313	0.075	
10.265	0.189	0.054	
10.270	0.404	0.055	
10.275	-0.258	0.079	
10.280	-0.070	0.068	
10.285	0.541	0.057	
10.290	-0.113	0.082	
10.295	-0.227	0.084	
10.300	0.451	0.064	
10.305	0.148	0.080	
10.310	-0.296	0.094	
10.315	0.236	0.074	
10.320	0.465	0.080	
10.325	-0.223	0.112	
10.330	-0.021	0.107	
10.335	0.590	0.099	
10.340	-0.111	0.126	
10.345	-0.249	0.121	
10.350	0.372	0.085	
10.355	0.047	0.077	
10.360	-0.355	0.064	
10.365	0.087	0.019	
10.370	0.290	-0.001	
10.375	-0.316	0.005	
10.380	-0.148	-0.016	
10.385	0.404	-0.032	
10.390	-0.197	-0.013	
10.395	-0.302	-0.015	
10.400	0.302	-0.036	
10.405	0.008	-0.025	
10.410	-0.364	-0.018	
10.415	0.075	-0.040	
10.420	0.273	-0.042	
10.425	-0.284	-0.019	
10.430	0.062	-0.015	
10.435	0.957	0.027	
10.440	0.436	0.153	
10.445	0.241	0.283	
10.450	0.854	0.376	
10.455	0.293	0.456	
10.460	-0.306	0.463	
10.465	0.108	0.372	
10.470	0.283	0.267	
10.475	-0.328	0.182	
10.480	-0.169	0.082	
10.485	0.354	0.003	
10.490	-0.230	-0.022	
10.495	-0.334	-0.051	
10.500	0.238	-0.086	
10.505	-0.047	-0.083	
10.510	-0.399	-0.078	
10.515	0.017	-0.100	
10.520	0.227	-0.098	
10.525	-0.348	-0.074	
10.530	-0.177	-0.078	
10.535	0.369	-0.081	
10.540	-0.212	-0.051	
10.545	-0.311	-0.044	
10.550	0.305	-0.057	
10.555	0.014	-0.038	
10.560	-0.358	-0.023	
10.565	0.101	-0.039	
10.570	0.319	-0.033	
10.575	-0.302	-0.003	
10.580	-0.120	-0.007	
10.585	0.474	-0.011	
10.590	-0.151	0.021	
10.595	-0.258	0.028	
10.600	0.399	0.015	
10.605	0.097	0.035	
10.610	-0.314	0.051	
10.615	0.194	0.034	
10.620	0.416	0.042	
10.625	-0.249	0.074	
10.630	-0.056	0.070	
10.635	0.555	0.064	
10.640	-0.105	0.093	
10.645	-0.210	0.096	
10.650	0.498	0.079	
10.655	0.194	0.101	
10.660	-0.267	0.122	
10.665	0.293	0.107	
10.670	0.509	0.119	
10.675	-0.195	0.154	
10.680	0.049	0.150	
10.685	0.686	0.148	
10.690	-0.009	0.185	
10.695	-0.142	0.193	
10.700	0.611	0.176	
10.705	0.311	0.199	
10.710	-0.209	0.221	
10.715	0.399	0.205	
10.720	0.602	0.214	
10.725	-0.160	0.245	
10.730	0.064	0.232	
10.735	0.654	0.211	
10.740	-0.078	0.221	
10.745	-0.224	0.198	
10.750	0.399	0.145	
10.755	0.040	0.120	
10.760	-0.369	0.091	
10.765	0.044	0.029	
10.770	0.216	-0.009	
10.775	-0.363	-0.021	
10.780	-0.209	-0.056	
10.785	0.280	-0.086	
10.790	-0.264	-0.081	
10.795	-0.361	-0.092	
10.800	0.181	-0.117	
10.805	-0.096	-0.112	
10.810	-0.430	-0.110	
10.815	-0.032	-0.134	
10.820	0.163	-0.136	
10.825	-0.378	-0.116	
10.830	-0.206	-0.122	
10.835	0.306	-0.124	
10.840	-0.246	-0.095	
10.845	-0.343	-0.088	
10.850	0.227	-0.100	
10.855	-0.063	-0.086	
10.860	-0.403	-0.077	
10.865	0.020	-0.097	
10.870	0.229	-0.096	
10.875	-0.348	-0.071	
10.880	-0.174	-0.076	
10.885	0.361	-0.079	
10.890	-0.226	-0.052	
10.895	-0.322	-0.047	
10.900	0.270	-0.064	
10.905	-0.024	-0.052	
10.910	-0.381	-0.043	
10.915	0.047	-0.065	
10.920	0.251	-0.066	
10.925	-0.337	-0.044	
10.930	-0.159	-0.052	
10.935	0.386	-0.059	
10.940	-0.207	-0.032	
10.945	-0.308	-0.029	
10.950	0.293	-0.047	
10.955	-0.011	-0.034	
10.960	-0.378	-0.027	
10.965	0.068	-0.050	
10.970	0.262	-0.052	
10.975	-0.332	-0.031	
10.980	-0.159	-0.041	
10.985	0.386	-0.050	
10.990	-0.209	-0.027	
10.995	-0.308	-0.026	
11.000	0.303	-0.045	
11.005	-0.005	-0.033	
11.010	-0.369	-0.024	
11.015	0.079	-0.046	
11.020	0.279	-0.045	
11.025	-0.317	-0.021	
11.030	-0.139	-0.029	
11.035	0.428	-0.035	
11.040	-0.183	-0.007	
11.045	-0.285	-0.002	
11.050	0.341	-0.018	
11.055	0.029	-0.003	
11.060	-0.348	0.007	
11.065	0.130	-0.014	
11.070	0.335	-0.010	
11.075	-0.290	0.017	
11.080	-0.101	0.011	
11.085	0.489	0.006	
11.090	-0.146	0.036	
11.095	-0.247	0.042	
11.100	0.419	0.027	
11.105	0.110	0.047	
11.110	-0.306	0.063	
11.115	0.215	0.046	
11.120	0.402	0.054	
11.125	-0.261	0.083	
11.130	-0.072	0.073	
11.135	0.517	0.060	
11.140	-0.139	0.080	
11.145	-0.246	0.075	
11.150	0.416	0.049	
11.155	0.097	0.059	
11.160	-0.314	0.066	
11.165	0.201	0.043	
11.170	0.393	0.045	
11.175	-0.262	0.072	
11.180	-0.070	0.062	
11.185	0.530	0.052	
11.190	-0.130	0.077	
11.195	-0.227	0.077	
11.200	0.451	0.057	
11.205	0.131	0.074	
11.210	-0.293	0.088	
11.215	0.259	0.069	
11.220	0.453	0.079	
11.225	-0.238	0.112	
11.230	-0.053	0.104	
11.235	0.508	0.088	
11.240	-0.163	0.101	
11.245	-0.277	0.084	
11.250	0.329	0.043	
11.255	0.000	0.032	
11.260	-0.369	0.019	
11.265	0.076	-0.022	
11.270	0.274	-0.035	
11.275	-0.326	-0.021	
11.280	-0.148	-0.035	
11.285	0.399	-0.045	
11.290	-0.206	-0.022	
11.295	-0.303	-0.021	
11.300	0.312	-0.039	
11.305	-0.003	-0.027	
11.310	-0.370	-0.018	
11.315	0.079	-0.042	
11.320	0.326	-0.040	
11.325	-0.200	-0.007	
11.330	0.305	0.021	
11.335	1.120	0.101	
11.340	0.424	0.259	
11.345	0.058	0.383	
11.350	0.610	0.426	
11.355	0.102	0.432	
11.360	-0.354	0.377	
11.365	0.084	0.256	
11.370	0.265	0.153	
11.375	-0.334	0.087	
11.380	-0.159	0.013	
11.385	0.372	-0.039	
11.390	-0.227	-0.041	
11.395	-0.316	-0.053	
11.400	0.276	-0.075	
11.405	-0.034	-0.063	
11.410	-0.386	-0.054	
11.415	0.053	-0.074	
11.420	0.239	-0.072	
11.425	-0.343	-0.049	
11.430	-0.153	-0.056	
11.435	0.393	-0.061	
11.440	-0.209	-0.033	
11.445	-0.297	-0.028	
11.450	0.328	-0.042	
11.455	0.004	-0.024	
11.460	-0.360	-0.012	
11.465	0.120	-0.032	
11.470	0.314	-0.026	
11.475	-0.305	0.002	
11.480	-0.114	-0.004	
11.485	0.456	-0.009	
11.490	-0.172	0.018	
11.495	-0.264	0.022	
11.500	0.384	0.005	
11.505	0.059	0.021	
11.510	-0.329	0.034	
11.515	0.172	0.014	
11.520	0.360	0.019	
11.525	-0.277	0.046	
11.530	-0.076	0.038	
11.535	0.520	0.032	
11.540	-0.136	0.061	
11.545	-0.224	0.065	
11.550	0.460	0.049	
11.555	0.136	0.071	
11.560	-0.285	0.089	
11.565	0.270	0.074	
11.570	0.460	0.086	
11.575	-0.224	0.120	
11.580	0.017	0.117	
11.585	0.634	0.114	
11.590	-0.060	0.148	
11.595	-0.160	0.154	
11.600	0.587	0.138	
11.605	0.255	0.163	
11.610	-0.232	0.185	
11.615	0.352	0.169	
11.620	0.509	0.175	
11.625	-0.220	0.198	
11.630	-0.023	0.176	
11.635	0.526	0.144	
11.640	-0.169	0.142	
11.645	-0.285	0.110	
11.650	0.277	0.053	
11.655	-0.079	0.023	
11.660	-0.427	-0.009	
11.665	-0.034	-0.068	
11.670	0.108	-0.103	
11.675	-0.412	-0.111	
11.680	-0.238	-0.139	
11.685	0.216	-0.158	
11.690	-0.308	-0.143	
11.695	-0.389	-0.146	
11.700	0.140	-0.164	
11.705	-0.136	-0.154	
11.710	-0.450	-0.147	
11.715	-0.053	-0.167	
11.720	0.107	-0.167	
11.725	-0.399	-0.147	
11.730	-0.215	-0.152	
11.735	0.273	-0.152	
11.740	-0.271	-0.121	
11.745	-0.348	-0.112	
11.750	0.224	-0.121	
11.755	-0.076	-0.102	
11.760	-0.403	-0.089	
11.765	0.049	-0.105	
11.770	0.227	-0.097	
11.775	-0.345	-0.068	
11.780	-0.153	-0.069	
11.785	0.386	-0.069	
11.790	-0.220	-0.038	
11.795	-0.299	-0.032	
11.800	0.314	-0.046	
11.805	-0.014	-0.030	
11.810	-0.363	-0.020	
11.815	0.122	-0.040	
11.820	0.290	-0.035	
11.825	-0.313	-0.008	
11.830	-0.113	-0.014	
11.835	0.447	-0.018	
11.840	-0.183	0.010	
11.845	-0.264	0.014	
11.850	0.381	-0.002	
11.855	0.038	0.015	
11.860	-0.337	0.027	
11.865	0.168	0.006	
11.870	0.337	0.010	
11.875	-0.293	0.035	
11.880	-0.084	0.026	
11.885	0.492	0.018	
11.890	-0.160	0.045	
11.895	-0.244	0.047	
11.900	0.431	0.029	
11.905	0.079	0.047	
11.910	-0.316	0.060	
11.915	0.207	0.039	
11.920	0.369	0.043	
11.925	-0.279	0.068	
11.930	-0.066	0.056	
11.935	0.518	0.045	
11.940	-0.149	0.069	
11.945	-0.229	0.067	
11.950	0.450	0.047	
11.955	0.097	0.064	
11.960	-0.305	0.076	
11.965	0.235	0.055	
11.970	0.399	0.061	
11.975	-0.262	0.088	
11.980	-0.049	0.077	
11.985	0.529	0.065	
11.990	-0.146	0.087	
11.995	-0.230	0.082	
12.000	0.439	0.057	
12.005	0.072	0.067	
12.010	-0.319	0.072	
12.015	0.206	0.044	
12.020	0.352	0.043	
12.025	-0.290	0.063	
12.030	-0.079	0.047	
12.035	0.482	0.032	
12.040	-0.174	0.052	
12.045	-0.250	0.046	
12.050	0.402	0.023	
12.055	0.044	0.034	
12.060	-0.331	0.041	
12.065	0.180	0.017	
12.070	0.331	0.018	
12.075	-0.294	0.041	
12.080	-0.081	0.029	
12.085	0.480	0.019	
12.090	-0.175	0.043	
12.095	-0.253	0.041	
12.100	0.395	0.019	
12.105	0.032	0.031	
12.110	-0.335	0.037	
12.115	0.168	0.011	
12.120	0.320	0.011	
12.125	-0.297	0.033	
12.130	-0.084	0.021	
12.135	0.480	0.012	
12.140	-0.177	0.037	
12.145	-0.256	0.037	
12.150	0.389	0.016	
12.155	0.030	0.028	
12.160	-0.332	0.035	
12.165	0.189	0.011	
12.170	0.349	0.015	
12.175	-0.282	0.042	
12.180	-0.066	0.035	
12.185	0.492	0.029	
12.190	-0.163	0.055	
12.195	-0.229	0.055	
12.200	0.442	0.037	
12.205	0.082	0.055	
12.210	-0.297	0.068	
12.215	0.258	0.050	
12.220	0.401	0.061	
12.225	-0.270	0.091	
12.230	-0.079	0.079	
12.235	0.437	0.059	
12.240	-0.215	0.065	
12.245	-0.293	0.043	
12.250	0.308	0.001	
12.255	-0.052	-0.007	
12.260	-0.384	-0.018	
12.265	0.072	-0.055	
12.270	0.204	-0.064	
12.275	-0.358	-0.052	
12.280	-0.156	-0.067	
12.285	0.358	-0.076	
12.290	-0.235	-0.052	
12.295	-0.299	-0.049	
12.300	0.315	-0.063	
12.305	-0.053	-0.045	
12.310	-0.367	-0.035	
12.315	0.261	-0.048	
12.320	0.669	-0.008	
12.325	0.073	0.091	
12.330	0.575	0.186	
12.335	1.053	0.304	
12.340	0.070	0.433	
12.345	-0.188	0.463	
12.350	0.401	0.396	
12.355	-0.015	0.318	
12.360	-0.358	0.222	
12.365	0.120	0.105	
12.370	0.247	0.034	
12.375	-0.335	0.006	
12.380	-0.125	-0.034	
12.385	0.402	-0.056	
12.390	-0.220	-0.035	
12.395	-0.281	-0.033	
12.400	0.337	-0.047	
12.405	-0.021	-0.027	
12.410	-0.349	-0.015	
12.415	0.172	-0.032	
12.420	0.319	-0.020	
12.425	-0.300	0.013	
12.430	-0.078	0.011	
12.435	0.476	0.008	
12.440	-0.180	0.037	
12.445	-0.249	0.039	
12.450	0.398	0.019	
12.455	0.017	0.032	
12.460	-0.337	0.037	
12.465	0.169	0.010	
12.470	0.297	0.009	
12.475	-0.313	0.027	
12.480	-0.095	0.012	
12.485	0.451	-0.000	
12.490	-0.191	0.022	
12.495	-0.252	0.021	
12.500	0.399	0.003	
12.505	0.027	0.020	
12.510	-0.328	0.030	
12.515	0.212	0.011	
12.520	0.351	0.020	
12.525	-0.274	0.050	
12.530	-0.031	0.045	
12.535	0.540	0.044	
12.540	-0.136	0.077	
12.545	-0.194	0.083	
12.550	0.514	0.070	
12.555	0.139	0.095	
12.560	-0.261	0.115	
12.565	0.338	0.101	
12.570	0.469	0.117	
12.575	-0.217	0.152	
12.580	0.079	0.146	
12.585	0.663	0.144	
12.590	-0.066	0.179	
12.595	-0.134	0.181	
12.600	0.616	0.162	
12.605	0.224	0.183	
12.610	-0.229	0.199	
12.615	0.378	0.176	
12.620	0.469	0.179	
12.625	-0.239	0.197	
12.630	-0.017	0.168	
12.635	0.494	0.133	
12.640	-0.200	0.127	
12.645	-0.285	0.092	
12.650	0.279	0.035	
12.655	-0.107	0.008	
12.660	-0.424	-0.023	
12.665	-0.009	-0.079	
12.670	0.085	-0.108	
12.675	-0.418	-0.114	
12.680	-0.213	-0.141	
12.685	0.216	-0.157	
12.690	-0.317	-0.140	
12.695	-0.369	-0.143	
12.700	0.158	-0.159	
12.705	-0.162	-0.147	
12.710	-0.451	-0.143	
12.715	-0.037	-0.165	
12.720	0.073	-0.166	
12.725	-0.419	-0.151	
12.730	-0.204	-0.160	
12.735	0.250	-0.162	
12.740	-0.302	-0.133	
12.745	-0.348	-0.127	
12.750	0.212	-0.136	
12.755	-0.128	-0.118	
12.760	-0.422	-0.109	
12.765	0.021	-0.129	
12.770	0.134	-0.126	
12.775	-0.386	-0.105	
12.780	-0.159	-0.113	
12.785	0.334	-0.113	
12.790	-0.258	-0.080	
12.795	-0.305	-0.072	
12.800	0.290	-0.081	
12.805	-0.082	-0.062	
12.810	-0.390	-0.053	
12.815	0.085	-0.075	
12.820	0.189	-0.073	
12.825	-0.360	-0.054	
12.830	-0.136	-0.066	
12.835	0.367	-0.071	
12.840	-0.241	-0.044	
12.845	-0.282	-0.041	
12.850	0.337	-0.054	
12.855	-0.046	-0.034	
12.860	-0.358	-0.023	
12.865	0.140	-0.042	
12.870	0.233	-0.037	
12.875	-0.339	-0.015	
12.880	-0.101	-0.027	
12.885	0.424	-0.033	
12.890	-0.209	-0.005	
12.895	-0.249	-0.002	
12.900	0.407	-0.013	
12.905	0.011	0.010	
12.910	-0.325	0.024	
12.915	0.223	0.008	
12.920	0.323	0.018	
12.925	-0.293	0.047	
12.930	-0.038	0.038	
12.935	0.505	0.033	
12.940	-0.172	0.062	
12.945	-0.217	0.061	
12.950	0.465	0.044	
12.955	0.052	0.062	
12.960	-0.303	0.072	
12.965	0.267	0.050	
12.970	0.360	0.057	
12.975	-0.274	0.083	
12.980	-0.017	0.071	
12.985	0.527	0.062	
12.990	-0.160	0.087	
12.995	-0.203	0.083	
13.000	0.477	0.062	
13.005	0.059	0.077	
13.010	-0.299	0.084	
13.015	0.276	0.060	
13.020	0.364	0.066	
13.025	-0.268	0.090	
13.030	0.001	0.078	
13.035	0.541	0.070	
13.040	-0.153	0.096	
13.045	-0.198	0.093	
13.050	0.497	0.072	
13.055	0.073	0.088	
13.060	-0.290	0.096	
13.065	0.291	0.073	
13.070	0.384	0.079	
13.075	-0.262	0.104	
13.080	0.014	0.091	
13.085	0.547	0.083	
13.090	-0.157	0.107	
13.095	-0.201	0.101	
13.100	0.469	0.075	
13.105	0.030	0.084	
13.110	-0.319	0.082	
13.115	0.233	0.049	
13.120	0.314	0.045	
13.125	-0.300	0.061	
13.130	-0.038	0.042	
13.135	0.501	0.031	
13.140	-0.180	0.056	
13.145	-0.217	0.054	
13.150	0.462	0.037	
13.155	0.038	0.056	
13.160	-0.303	0.065	
13.165	0.255	0.044	
13.170	0.337	0.050	
13.175	-0.277	0.074	
13.180	-0.009	0.061	
13.185	0.517	0.054	
13.190	-0.186	0.079	
13.195	-0.241	0.073	
13.200	0.375	0.042	
13.205	-0.060	0.040	
13.210	-0.366	0.027	
13.215	0.125	-0.015	
13.220	0.194	-0.030	
13.225	-0.354	-0.024	
13.230	-0.114	-0.046	
13.235	0.376	-0.058	
13.240	-0.244	-0.034	
13.245	-0.273	-0.035	
13.250	0.346	-0.049	
13.255	-0.064	-0.030	
13.260	-0.360	-0.022	
13.265	0.146	-0.044	
13.270	0.201	-0.040	
13.275	-0.328	-0.020	
13.280	0.081	-0.024	
13.285	0.883	0.011	
13.290	0.315	0.126	
13.295	0.320	0.244	
13.300	0.962	0.346	
13.305	0.259	0.447	
13.310	-0.297	0.469	
13.315	0.178	0.386	
13.320	0.206	0.286	
13.325	-0.352	0.195	
13.330	-0.107	0.087	
13.335	0.378	0.008	
13.340	-0.247	-0.013	
13.345	-0.279	-0.039	
13.350	0.331	-0.067	
13.355	-0.084	-0.054	
13.360	-0.377	-0.048	
13.365	0.133	-0.069	
13.370	0.192	-0.062	
13.375	-0.357	-0.040	
13.380	-0.110	-0.051	
13.385	0.383	-0.056	
13.390	-0.238	-0.029	
13.395	-0.256	-0.026	
13.400	0.378	-0.037	
13.405	-0.052	-0.015	
13.410	-0.349	-0.005	
13.415	0.175	-0.026	
13.420	0.235	-0.020	
13.425	-0.332	0.001	
13.430	-0.075	-0.012	
13.435	0.444	-0.018	
13.440	-0.217	0.010	
13.445	-0.241	0.011	
13.450	0.412	-0.004	
13.455	-0.026	0.015	
13.460	-0.334	0.023	
13.465	0.224	0.001	
13.470	0.285	0.008	
13.475	-0.306	0.033	
13.480	-0.032	0.022	
13.485	0.488	0.018	
13.490	-0.185	0.048	
13.495	-0.200	0.050	
13.500	0.495	0.038	
13.505	0.047	0.063	
13.510	-0.284	0.078	
13.515	0.329	0.063	
13.520	0.387	0.078	
13.525	-0.250	0.111	
13.530	0.082	0.105	
13.535	0.620	0.108	
13.540	-0.107	0.145	
13.545	-0.124	0.150	
13.550	0.623	0.137	
13.555	0.169	0.165	
13.560	-0.223	0.182	
13.565	0.434	0.165	
13.570	0.485	0.178	
13.575	-0.209	0.206	
13.580	0.123	0.191	
13.585	0.605	0.178	
13.590	-0.154	0.193	
13.595	-0.204	0.169	
13.600	0.412	0.119	
13.605	-0.069	0.098	
13.610	-0.377	0.065	
13.615	0.084	0.002	
13.620	0.084	-0.034	
13.625	-0.418	-0.054	
13.630	-0.180	-0.097	
13.635	0.223	-0.125	
13.640	-0.335	-0.120	
13.645	-0.354	-0.132	
13.650	0.178	-0.153	
13.655	-0.185	-0.144	
13.660	-0.447	-0.142	
13.665	-0.003	-0.165	
13.670	0.041	-0.165	
13.675	-0.425	-0.150	
13.680	-0.172	-0.161	
13.685	0.242	-0.160	
13.690	-0.314	-0.131	
13.695	-0.322	-0.125	
13.700	0.248	-0.132	
13.705	-0.143	-0.109	
13.710	-0.409	-0.099	
13.715	0.076	-0.116	
13.720	0.117	-0.110	
13.725	-0.390	-0.090	
13.730	-0.125	-0.100	
13.735	0.329	-0.101	
13.740	-0.271	-0.071	
13.745	-0.276	-0.065	
13.750	0.337	-0.073	
13.755	-0.098	-0.050	
13.760	-0.366	-0.039	
13.765	0.163	-0.058	
13.770	0.190	-0.049	
13.775	-0.352	-0.027	
13.780	-0.082	-0.039	
13.785	0.395	-0.043	
13.790	-0.241	-0.016	
13.795	-0.246	-0.015	
13.800	0.381	-0.028	
13.805	-0.073	-0.008	
13.810	-0.351	-0.003	
13.815	0.197	-0.026	
13.820	0.226	-0.021	
13.825	-0.337	0.000	
13.830	-0.063	-0.013	
13.835	0.421	-0.019	
13.840	-0.230	0.007	
13.845	-0.236	0.005	
13.850	0.401	-0.010	
13.855	-0.061	0.007	
13.860	-0.340	0.012	
13.865	0.215	-0.013	
13.870	0.239	-0.007	
13.875	-0.328	0.014	
13.880	-0.047	0.000	
13.885	0.441	-0.006	
13.890	-0.221	0.021	
13.895	-0.221	0.020	
13.900	0.431	0.005	
13.905	-0.040	0.024	
13.910	-0.325	0.031	
13.915	0.241	0.007	
13.920	0.259	0.014	
13.925	-0.320	0.035	
13.930	-0.027	0.020	
13.935	0.465	0.013	
13.940	-0.209	0.039	
13.945	-0.212	0.037	
13.950	0.448	0.021	
13.955	-0.037	0.039	
13.960	-0.320	0.043	
13.965	0.255	0.018	
13.970	0.258	0.023	
13.975	-0.316	0.042	
13.980	-0.024	0.025	
13.985	0.453	0.016	
13.990	-0.217	0.040	
13.995	-0.217	0.035	
14.000	0.439	0.016	
14.005	-0.043	0.033	
14.010	-0.323	0.036	
14.015	0.251	0.011	
14.020	0.256	0.017	
14.025	-0.316	0.037	
14.030	-0.009	0.022	
14.035	0.486	0.018	
14.040	-0.192	0.048	
14.045	-0.180	0.051	
14.050	0.514	0.041	
14.055	0.020	0.068	
14.060	-0.284	0.082	
14.065	0.325	0.063	
14.070	0.302	0.073	
14.075	-0.293	0.094	
14.080	0.058	0.076	
14.085	0.534	0.070	
14.090	-0.182	0.098	
14.095	-0.183	0.092	
14.100	0.460	0.069	
14.105	-0.052	0.076	
14.110	-0.337	0.067	
14.115	0.204	0.026	
14.120	0.186	0.013	
14.125	-0.352	0.014	
14.130	-0.063	-0.014	
14.135	0.393	-0.030	
14.140	-0.252	-0.010	
14.145	-0.238	-0.015	
14.150	0.398	-0.029	
14.155	-0.081	-0.009	
14.160	-0.345	-0.003	
14.165	0.207	-0.025	
14.170	0.194	-0.019	
14.175	-0.337	-0.001	
14.180	0.072	-0.011	
14.185	0.790	0.014	
14.190	0.213	0.110	
14.195	0.370	0.210	
14.200	1.059	0.313	
14.205	0.320	0.436	
14.210	-0.239	0.483	
14.215	0.287	0.423	
14.220	0.213	0.341	
14.225	-0.343	0.254	
14.230	-0.064	0.140	
14.235	0.372	0.054	
14.240	-0.271	0.020	
14.245	-0.259	-0.020	
14.250	0.337	-0.057	
14.255	-0.125	-0.051	
14.260	-0.372	-0.052	
14.265	0.157	-0.076	
14.270	0.139	-0.070	
14.275	-0.372	-0.051	
14.280	-0.079	-0.064	
14.285	0.361	-0.066	
14.290	-0.265	-0.038	
14.295	-0.244	-0.036	
14.300	0.370	-0.046	
14.305	-0.104	-0.024	
14.310	-0.351	-0.018	
14.315	0.204	-0.039	
14.320	0.184	-0.031	
14.325	-0.343	-0.011	
14.330	-0.043	-0.024	
14.335	0.401	-0.027	
14.340	-0.246	-0.000	
14.345	-0.221	-0.001	
14.350	0.421	-0.014	
14.355	-0.067	0.008	
14.360	-0.322	0.016	
14.365	0.253	-0.005	
14.370	0.224	0.005	
14.375	-0.322	0.026	
14.380	0.008	0.013	
14.385	0.469	0.012	
14.390	-0.209	0.043	
14.395	-0.175	0.044	
14.400	0.501	0.034	
14.405	-0.008	0.061	
14.410	-0.277	0.072	
14.415	0.357	0.055	
14.420	0.337	0.072	
14.425	-0.265	0.102	
14.430	0.133	0.096	
14.435	0.596	0.102	
14.440	-0.142	0.141	
14.445	-0.099	0.144	
14.450	0.625	0.132	
14.455	0.096	0.159	
14.460	-0.220	0.171	
14.465	0.466	0.151	
14.470	0.422	0.165	
14.475	-0.229	0.192	
14.480	0.158	0.175	
14.485	0.570	0.165	
14.490	-0.180	0.181	
14.495	-0.180	0.157	
14.500	0.427	0.111	
14.505	-0.108	0.094	
14.510	-0.370	0.061	
14.515	0.116	-0.001	
14.520	0.037	-0.035	
14.525	-0.433	-0.057	
14.530	-0.160	-0.103	
14.535	0.192	-0.132	
14.540	-0.357	-0.129	
14.545	-0.328	-0.142	
14.550	0.189	-0.161	
14.555	-0.220	-0.148	
14.560	-0.441	-0.146	
14.565	0.033	-0.168	
14.570	-0.006	-0.165	
14.575	-0.432	-0.152	
14.580	-0.140	-0.164	
14.585	0.232	-0.162	
14.590	-0.339	-0.132	
14.595	-0.302	-0.127	
14.600	0.261	-0.133	
14.605	-0.177	-0.109	
14.610	-0.399	-0.100	
14.615	0.117	-0.117	
14.620	0.068	-0.108	
14.625	-0.399	-0.090	
14.630	-0.101	-0.103	
14.635	0.309	-0.104	
14.640	-0.299	-0.075	
14.645	-0.258	-0.072	
14.650	0.340	-0.079	
14.655	-0.133	-0.055	
14.660	-0.360	-0.046	
14.665	0.186	-0.064	
14.670	0.134	-0.054	
14.675	-0.367	-0.035	
14.680	-0.052	-0.050	
14.685	0.370	-0.052	
14.690	-0.268	-0.024	
14.695	-0.226	-0.024	
14.700	0.401	-0.035	
14.705	-0.105	-0.011	
14.710	-0.339	-0.005	
14.715	0.235	-0.026	
14.720	0.168	-0.018	
14.725	-0.349	-0.000	
14.730	-0.021	-0.017	
14.735	0.392	-0.022	
14.740	-0.259	0.003	
14.745	-0.212	-0.001	
14.750	0.421	-0.015	
14.755	-0.098	0.005	
14.760	-0.325	0.010	
14.765	0.267	-0.012	
14.770	0.198	-0.002	
14.775	-0.331	0.019	
14.780	0.015	0.005	
14.785	0.436	0.003	
14.790	-0.232	0.032	
14.795	-0.186	0.031	
14.800	0.462	0.018	
14.805	-0.076	0.038	
14.810	-0.311	0.042	
14.815	0.302	0.017	
14.820	0.226	0.026	
14.825	-0.319	0.045	
14.830	0.038	0.029	
14.835	0.456	0.026	
14.840	-0.227	0.053	
14.845	-0.175	0.048	
14.850	0.485	0.033	
14.855	-0.060	0.053	
14.860	-0.300	0.056	
14.865	0.305	0.031	
14.870	0.219	0.037	
14.875	-0.320	0.053	
14.880	0.043	0.034	
14.885	0.463	0.028	
14.890	-0.227	0.055	
14.895	-0.178	0.050	
14.900	0.471	0.033	
14.905	-0.069	0.051	
14.910	-0.300	0.052	
14.915	0.317	0.026	
14.920	0.227	0.035	
14.925	-0.316	0.054	
14.930	0.052	0.037	
14.935	0.450	0.033	
14.940	-0.232	0.058	
14.945	-0.171	0.051	
14.950	0.477	0.034	
14.955	-0.072	0.052	
14.960	-0.302	0.053	
14.965	0.309	0.026	
14.970	0.219	0.033	
14.975	-0.319	0.051	
14.980	0.047	0.032	
14.985	0.454	0.028	
14.990	-0.220	0.055	
14.995	-0.148	0.052	
15.000	0.538	0.042	
15.005	-0.012	0.071	
15.010	-0.267	0.084	
15.015	0.344	0.066	
15.020	0.223	0.074	
15.025	-0.319	0.086	
15.030	0.056	0.060	
15.035	0.445	0.047	
15.040	-0.242	0.064	
15.045	-0.194	0.050	
15.050	0.399	0.023	
15.055	-0.140	0.027	
15.060	-0.355	0.013	
15.065	0.203	-0.026	
15.070	0.091	-0.034	
15.075	-0.387	-0.032	
15.080	-0.066	-0.059	
15.085	0.305	-0.072	
15.090	-0.306	-0.054	
15.095	-0.238	-0.060	
15.100	0.355	-0.072	
15.105	-0.146	-0.049	
15.110	-0.354	-0.043	
15.115	0.216	-0.061	
15.120	0.091	-0.051	
15.125	-0.369	-0.035	
15.130	0.101	-0.046	
15.135	0.751	-0.016	
15.140	0.177	0.084	
15.145	0.431	0.188	
15.150	1.076	0.303	
15.155	0.253	0.434	
15.160	-0.230	0.481	
15.165	0.314	0.420	
15.170	0.145	0.338	
15.175	-0.355	0.246	
15.180	-0.017	0.129	
15.185	0.346	0.046	
15.190	-0.293	0.014	
15.195	-0.232	-0.026	
15.200	0.354	-0.060	
15.205	-0.159	-0.050	
15.210	-0.358	-0.051	
15.215	0.194	-0.074	
15.220	0.084	-0.066	
15.225	-0.378	-0.051	
15.230	-0.037	-0.067	
15.235	0.343	-0.067	
15.240	-0.288	-0.038	
15.245	-0.218	-0.038	
15.250	0.387	-0.046	
15.255	-0.134	-0.022	
15.260	-0.331	-0.016	
15.265	0.265	-0.035	
15.270	0.142	-0.022	
15.275	-0.349	-0.002	
15.280	0.020	-0.017	
15.285	0.390	-0.017	
15.290	-0.261	0.011	
15.295	-0.178	0.008	
15.300	0.459	-0.002	
15.305	-0.095	0.023	
15.310	-0.299	0.030	
15.315	0.319	0.010	
15.320	0.203	0.024	
15.325	-0.316	0.045	
15.330	0.084	0.031	
15.335	0.462	0.033	
15.340	-0.221	0.064	
15.345	-0.133	0.062	
15.350	0.540	0.052	
15.355	-0.044	0.080	
15.360	-0.255	0.087	
15.365	0.422	0.069	
15.370	0.300	0.088	
15.375	-0.262	0.116	
15.380	0.206	0.108	
15.385	0.575	0.117	
15.390	-0.157	0.156	
15.395	-0.046	0.156	
15.400	0.675	0.146	
15.405	0.087	0.179	
15.410	-0.178	0.193	
15.415	0.543	0.177	
15.420	0.396	0.196	
15.425	-0.223	0.221	
15.430	0.244	0.201	
15.435	0.581	0.194	
15.440	-0.185	0.210	
15.445	-0.122	0.184	
15.450	0.501	0.140	
15.455	-0.104	0.129	
15.460	-0.328	0.098	
15.465	0.207	0.039	
15.470	0.030	0.008	
15.475	-0.415	-0.015	
15.480	-0.107	-0.066	
15.485	0.190	-0.099	
15.490	-0.367	-0.101	
15.495	-0.288	-0.122	
15.500	0.226	-0.143	
15.505	-0.238	-0.130	
15.510	-0.416	-0.131	
15.515	0.091	-0.152	
15.520	-0.035	-0.147	
15.525	-0.433	-0.136	
15.530	-0.099	-0.152	
15.535	0.223	-0.151	
15.540	-0.351	-0.122	
15.545	-0.264	-0.120	
15.550	0.290	-0.124	
15.555	-0.195	-0.098	
15.560	-0.367	-0.088	
15.565	0.194	-0.101	
15.570	0.056	-0.085	
15.575	-0.384	-0.066	
15.580	-0.015	-0.077	
15.585	0.343	-0.072	
15.590	-0.285	-0.038	
15.595	-0.198	-0.034	
15.600	0.402	-0.039	
15.605	-0.142	-0.013	
15.610	-0.328	-0.007	
15.615	0.276	-0.027	
15.620	0.116	-0.016	
15.625	-0.355	-0.001	
15.630	0.026	-0.019	
15.635	0.369	-0.022	
15.640	-0.276	0.003	
15.645	-0.180	-0.002	
15.650	0.436	-0.013	
15.655	-0.127	0.010	
15.660	-0.311	0.013	
15.665	0.306	-0.008	
15.670	0.139	0.004	
15.675	-0.348	0.019	
15.680	0.037	-0.000	
15.685	0.380	-0.005	
15.690	-0.270	0.018	
15.695	-0.177	0.010	
15.700	0.445	-0.004	
15.705	-0.122	0.017	
15.710	-0.306	0.020	
15.715	0.305	-0.003	
15.720	0.134	0.007	
15.725	-0.343	0.021	
15.730	0.046	0.001	
15.735	0.383	-0.003	
15.740	-0.271	0.020	
15.745	-0.171	0.013	
15.750	0.448	-0.001	
15.755	-0.125	0.020	
15.760	-0.306	0.022	
15.765	0.308	-0.001	
15.770	0.133	0.008	
15.775	-0.343	0.022	
15.780	0.055	0.001	
15.785	0.392	-0.002	
15.790	-0.268	0.024	
15.795	-0.165	0.017	
15.800	0.456	0.004	
15.805	-0.125	0.026	
15.810	-0.303	0.027	
15.815	0.320	0.004	
15.820	0.143	0.014	
15.825	-0.337	0.029	
15.830	0.065	0.009	
15.835	0.387	0.006	
15.840	-0.270	0.030	
15.845	-0.162	0.022	
15.850	0.453	0.007	
15.855	-0.125	0.027	
15.860	-0.305	0.027	
15.865	0.312	0.003	
15.870	0.139	0.011	
15.875	-0.335	0.025	
15.880	0.073	0.006	
15.885	0.395	0.005	
15.890	-0.265	0.031	
15.895	-0.157	0.025	
15.900	0.469	0.012	
15.905	-0.124	0.034	
15.910	-0.294	0.035	
15.915	0.328	0.011	
15.920	0.146	0.021	
15.925	-0.328	0.035	
15.930	0.119	0.018	
15.935	0.459	0.023	
15.940	-0.223	0.059	
15.945	-0.101	0.062	
15.950	0.532	0.057	
15.955	-0.090	0.084	
15.960	-0.262	0.086	
15.965	0.405	0.062	
15.970	0.203	0.073	
15.975	-0.306	0.088	
15.980	0.114	0.066	
15.985	0.390	0.057	
15.990	-0.277	0.071	
15.995	-0.177	0.049	
16.000	0.405	0.018	
16.005	-0.162	0.022	
16.010	-0.326	0.008	
16.015	0.261	-0.025	
16.020	0.059	-0.026	
16.025	-0.367	-0.020	
16.030	0.024	-0.044	
16.035	0.325	-0.047	
16.040	-0.299	-0.023	
16.045	-0.182	-0.028	
16.050	0.408	-0.037	
16.055	-0.166	-0.013	
16.060	-0.319	-0.010	
16.065	0.412	-0.025	
16.070	0.456	0.017	
16.075	-0.003	0.095	
16.080	0.791	0.173	
16.085	1.018	0.300	
16.090	-0.040	0.435	
16.095	-0.060	0.462	
16.100	0.466	0.404	
16.105	-0.162	0.334	
16.110	-0.326	0.229	
16.115	0.255	0.110	
16.120	0.041	0.041	
16.125	-0.383	-0.002	
16.130	-0.006	-0.057	
16.135	0.282	-0.079	
16.140	-0.322	-0.064	
16.145	-0.204	-0.071	
16.150	0.364	-0.078	
16.155	-0.183	-0.052	
16.160	-0.335	-0.045	
16.165	0.248	-0.061	
16.170	0.035	-0.049	
16.175	-0.375	-0.036	
16.180	0.017	-0.056	
16.185	0.311	-0.056	
16.190	-0.305	-0.031	
16.195	-0.182	-0.035	
16.200	0.404	-0.043	
16.205	-0.163	-0.017	
16.210	-0.314	-0.012	
16.215	0.297	-0.031	
16.220	0.088	-0.017	
16.225	-0.351	-0.001	
16.230	0.072	-0.018	
16.235	0.355	-0.017	
16.240	-0.284	0.010	
16.245	-0.149	0.005	
16.250	0.460	-0.004	
16.255	-0.137	0.021	
16.260	-0.288	0.025	
16.265	0.344	0.005	
16.270	0.128	0.019	
16.275	-0.328	0.035	
16.280	0.120	0.017	
16.285	0.415	0.021	
16.290	-0.252	0.051	
16.295	-0.108	0.047	
16.300	0.532	0.039	
16.305	-0.092	0.068	
16.310	-0.242	0.075	
16.315	0.445	0.058	
16.320	0.232	0.080	
16.325	-0.270	0.105	
16.330	0.235	0.095	
16.335	0.538	0.106	
16.340	-0.183	0.144	
16.345	-0.021	0.143	
16.350	0.645	0.136	
16.355	-0.011	0.165	
16.360	-0.191	0.169	
16.365	0.515	0.145	
16.370	0.253	0.157	
16.375	-0.285	0.168	
16.380	0.148	0.135	
16.385	0.376	0.111	
16.390	-0.299	0.107	
16.395	-0.188	0.066	
16.400	0.332	0.018	
16.405	-0.227	0.003	
16.410	-0.377	-0.028	
16.415	0.134	-0.077	
16.420	-0.089	-0.096	
16.425	-0.453	-0.111	
16.430	-0.095	-0.148	
16.435	0.142	-0.162	
16.440	-0.392	-0.148	
16.445	-0.261	-0.156	
16.450	0.241	-0.162	
16.455	-0.259	-0.137	
16.460	-0.386	-0.130	
16.465	0.157	-0.143	
16.470	-0.056	-0.129	
16.475	-0.416	-0.115	
16.480	-0.040	-0.130	
16.485	0.219	-0.126	
16.490	-0.354	-0.099	
16.495	-0.220	-0.100	
16.500	0.328	-0.103	
16.505	-0.212	-0.076	
16.510	-0.340	-0.068	
16.515	0.235	-0.082	
16.520	0.003	-0.068	
16.525	-0.381	-0.055	
16.530	0.021	-0.072	
16.535	0.274	-0.071	
16.540	-0.328	-0.045	
16.545	-0.182	-0.051	
16.550	0.402	-0.057	
16.555	-0.180	-0.029	
16.560	-0.314	-0.023	
16.565	0.287	-0.039	
16.570	0.044	-0.026	
16.575	-0.361	-0.014	
16.580	0.073	-0.034	
16.585	0.319	-0.032	
16.590	-0.303	-0.007	
16.595	-0.151	-0.013	
16.600	0.434	-0.022	
16.605	-0.160	0.004	
16.610	-0.296	0.007	
16.615	0.322	-0.012	
16.620	0.061	-0.001	
16.625	-0.355	0.009	
16.630	0.084	-0.014	
16.635	0.332	-0.016	
16.640	-0.297	0.007	
16.645	-0.139	-0.002	
16.650	0.462	-0.011	
16.655	-0.153	0.016	
16.660	-0.284	0.020	
16.665	0.360	0.002	
16.670	0.093	0.017	
16.675	-0.340	0.031	
16.680	0.119	0.010	
16.685	0.366	0.010	
16.690	-0.279	0.035	
16.695	-0.122	0.026	
16.700	0.500	0.016	
16.705	-0.131	0.042	
16.710	-0.267	0.046	
16.715	0.361	0.026	
16.720	0.084	0.036	
16.725	-0.343	0.042	
16.730	0.111	0.015	
16.735	0.357	0.010	
16.740	-0.281	0.031	
16.745	-0.122	0.020	
16.750	0.479	0.009	
16.755	-0.151	0.034	
16.760	-0.277	0.035	
16.765	0.367	0.013	
16.770	0.091	0.026	
16.775	-0.332	0.037	
16.780	0.136	0.016	
16.785	0.364	0.016	
16.790	-0.284	0.040	
16.795	-0.113	0.030	
16.800	0.495	0.019	
16.805	-0.142	0.044	
16.810	-0.267	0.046	
16.815	0.383	0.024	
16.820	0.113	0.038	
16.825	-0.322	0.050	
16.830	0.161	0.030	
16.835	0.386	0.033	
16.840	-0.274	0.058	
16.845	-0.111	0.047	
16.850	0.482	0.033	
16.855	-0.148	0.052	
16.860	-0.265	0.048	
16.865	0.376	0.023	
16.870	0.093	0.034	
16.875	-0.331	0.043	
16.880	0.148	0.021	
16.885	0.370	0.021	
16.890	-0.274	0.046	
16.895	-0.104	0.036	
16.900	0.501	0.026	
16.905	-0.130	0.052	
16.910	-0.238	0.055	
16.915	0.462	0.040	
16.920	0.180	0.065	
16.925	-0.290	0.090	
16.930	0.212	0.077	
16.935	0.441	0.083	
16.940	-0.230	0.110	
16.945	-0.037	0.101	
16.950	0.569	0.090	
16.955	-0.114	0.113	
16.960	-0.259	0.108	
16.965	0.352	0.072	
16.970	0.037	0.063	
16.975	-0.352	0.051	
16.980	0.108	0.010	
16.985	0.309	-0.005	
16.990	-0.316	0.008	
16.995	-0.151	-0.009	
17.000	0.408	-0.025	
17.005	-0.197	-0.007	
17.010	-0.303	-0.010	
17.015	0.314	-0.032	
17.020	0.029	-0.021	
17.025	-0.354	-0.011	
17.030	0.097	-0.030	
17.035	0.296	-0.028	
17.040	-0.265	-0.002	
17.045	0.119	0.005	
17.050	0.991	0.053	
17.055	0.454	0.184	
17.060	0.230	0.313	
17.065	0.849	0.400	
17.070	0.305	0.472	
17.075	-0.291	0.474	
17.080	0.152	0.382	
17.085	0.322	0.282	
17.090	-0.308	0.203	
17.095	-0.139	0.107	
17.100	0.405	0.031	
17.105	-0.198	0.010	
17.110	-0.302	-0.015	
17.115	0.294	-0.049	
17.120	-0.012	-0.043	
17.125	-0.377	-0.038	
17.130	0.067	-0.060	
17.135	0.265	-0.059	
17.140	-0.328	-0.035	
17.145	-0.149	-0.042	
17.150	0.399	-0.048	
17.155	-0.200	-0.021	
17.160	-0.297	-0.018	
17.165	0.314	-0.035	
17.170	0.014	-0.021	
17.175	-0.357	-0.011	
17.180	0.088	-0.032	
17.185	0.277	-0.032	
17.190	-0.317	-0.011	
17.195	-0.131	-0.021	
17.200	0.434	-0.029	
17.205	-0.178	-0.002	
17.210	-0.271	0.003	
17.215	0.360	-0.012	
17.220	0.044	0.006	
17.225	-0.340	0.018	
17.230	0.149	-0.001	
17.235	0.343	0.003	
17.240	-0.279	0.030	
17.245	-0.085	0.024	
17.250	0.498	0.019	
17.255	-0.145	0.048	
17.260	-0.239	0.052	
17.265	0.439	0.036	
17.270	0.125	0.057	
17.275	-0.296	0.075	
17.280	0.247	0.059	
17.285	0.430	0.070	
17.290	-0.236	0.102	
17.295	-0.014	0.097	
17.300	0.601	0.092	
17.305	-0.073	0.124	
17.310	-0.166	0.130	
17.315	0.562	0.116	
17.320	0.226	0.143	
17.325	-0.249	0.165	
17.330	0.323	0.147	
17.335	0.511	0.154	
17.340	-0.207	0.181	
17.345	0.004	0.165	
17.350	0.572	0.145	
17.355	-0.139	0.154	
17.360	-0.255	0.132	
17.365	0.348	0.083	
17.370	-0.018	0.063	
17.375	-0.390	0.038	
17.380	0.015	-0.018	
17.385	0.177	-0.050	
17.390	-0.375	-0.057	
17.395	-0.204	-0.086	
17.400	0.279	-0.108	
17.405	-0.268	-0.094	
17.410	-0.354	-0.099	
17.415	0.194	-0.119	
17.420	-0.093	-0.109	
17.425	-0.419	-0.104	
17.430	-0.023	-0.126	
17.435	0.125	-0.129	
17.440	-0.403	-0.115	
17.445	-0.217	-0.128	
17.450	0.280	-0.137	
17.455	-0.267	-0.112	
17.460	-0.357	-0.107	
17.465	0.194	-0.122	
17.470	-0.099	-0.109	
17.475	-0.412	-0.102	
17.480	0.023	-0.122	
17.485	0.204	-0.116	
17.490	-0.354	-0.088	
17.495	-0.166	-0.089	
17.500	0.358	-0.088	
17.505	-0.226	-0.057	
17.510	-0.311	-0.049	
17.515	0.280	-0.063	
17.520	-0.035	-0.048	
17.525	-0.372	-0.039	
17.530	0.099	-0.059	
17.535	0.253	-0.054	
17.540	-0.331	-0.029	
17.545	-0.139	-0.037	
17.550	0.402	-0.043	
17.555	-0.210	-0.017	
17.560	-0.287	-0.016	
17.565	0.335	-0.032	
17.570	-0.011	-0.018	
17.575	-0.366	-0.009	
17.580	0.110	-0.033	
17.585	0.283	-0.032	
17.590	-0.316	-0.009	
17.595	-0.119	-0.018	
17.600	0.433	-0.024	
17.605	-0.201	0.002	
17.610	-0.279	0.003	
17.615	0.344	-0.016	
17.620	-0.005	-0.004	
17.625	-0.352	0.002	
17.630	0.142	-0.022	
17.635	0.314	-0.018	
17.640	-0.305	0.009	
17.645	-0.108	0.001	
17.650	0.448	-0.006	
17.655	-0.178	0.020	
17.660	-0.247	0.022	
17.665	0.395	0.006	
17.670	0.046	0.024	
17.675	-0.332	0.036	
17.680	0.186	0.015	
17.685	0.351	0.020	
17.690	-0.288	0.046	
17.695	-0.076	0.037	
17.700	0.477	0.027	
17.705	-0.174	0.050	
17.710	-0.236	0.047	
17.715	0.454	0.028	
17.720	0.087	0.048	
17.725	-0.314	0.064	
17.730	0.201	0.044	
17.735	0.348	0.046	
17.740	-0.271	0.068	
17.745	-0.055	0.054	
17.750	0.505	0.043	
17.755	-0.159	0.067	
17.760	-0.233	0.064	
17.765	0.431	0.041	
17.770	0.075	0.055	
17.775	-0.311	0.064	
17.780	0.238	0.043	
17.785	0.369	0.049	
17.790	-0.293	0.074	
17.795	-0.072	0.060	
17.800	0.495	0.044	
17.805	-0.157	0.064	
17.810	-0.218	0.060	
17.815	0.477	0.041	
17.820	0.108	0.064	
17.825	-0.285	0.082	
17.830	0.276	0.067	
17.835	0.402	0.078	
17.840	-0.255	0.107	
17.845	-0.014	0.096	
17.850	0.559	0.086	
17.855	-0.128	0.110	
17.860	-0.204	0.106	
17.865	0.445	0.080	
17.870	0.038	0.086	
17.875	-0.329	0.082	
17.880	0.181	0.045	
17.885	0.285	0.033	
17.890	-0.322	0.041	
17.895	-0.116	0.015	
17.900	0.418	-0.007	
17.905	-0.206	0.008	
17.910	-0.261	0.002	
17.915	0.366	-0.018	
17.920	-0.023	-0.004	
17.925	-0.354	0.002	
17.930	0.142	-0.022	
17.935	0.267	-0.021	
17.940	-0.323	-0.001	
17.945	-0.089	-0.012	
17.950	0.567	-0.012	
17.955	0.043	0.040	
17.960	0.125	0.094	
17.965	0.989	0.163	
17.970	0.477	0.285	
17.975	-0.206	0.373	
17.980	0.248	0.362	
17.985	0.270	0.316	
17.990	-0.335	0.255	
17.995	-0.117	0.155	
18.000	0.395	0.069	
18.005	-0.223	0.034	
18.010	-0.277	-0.004	
18.015	0.328	-0.043	
18.020	-0.056	-0.039	
18.025	-0.374	-0.038	
18.030	0.108	-0.062	
18.035	0.229	-0.059	
18.040	-0.335	-0.036	
18.045	-0.114	-0.044	
18.050	0.369	-0.049	
18.055	-0.239	-0.024	
18.060	-0.288	-0.026	
18.065	0.317	-0.045	
18.070	-0.058	-0.033	
18.075	-0.363	-0.028	
18.080	0.136	-0.051	
18.085	0.248	-0.045	
18.090	-0.319	-0.020	
18.095	-0.093	-0.026	
18.100	0.422	-0.028	
18.105	-0.207	0.001	
18.110	-0.252	0.004	
18.115	0.373	-0.011	
18.120	-0.032	0.005	
18.125	-0.352	0.010	
18.130	0.146	-0.016	
18.135	0.255	-0.018	
18.140	-0.316	0.001	
18.145	-0.082	-0.012	
18.150	0.453	-0.017	
18.155	-0.195	0.013	
18.160	-0.241	0.017	
18.165	0.415	0.003	
18.170	0.047	0.026	
18.175	-0.303	0.041	
18.180	0.258	0.027	
18.185	0.370	0.042	
18.190	-0.264	0.076	
18.195	0.015	0.072	
18.200	0.569	0.072	
18.205	-0.136	0.106	
18.210	-0.171	0.109	
18.215	0.541	0.093	
18.220	0.143	0.117	
18.225	-0.242	0.134	
18.230	0.369	0.119	
18.235	0.442	0.133	
18.240	-0.232	0.162	
18.245	0.061	0.149	
18.250	0.582	0.136	
18.255	-0.140	0.155	
18.260	-0.210	0.140	
18.265	0.405	0.099	
18.270	-0.047	0.087	
18.275	-0.377	0.061	
18.280	0.068	0.004	
18.285	0.126	-0.030	
18.290	-0.399	-0.045	
18.295	-0.192	-0.084	
18.300	0.233	-0.113	
18.305	-0.313	-0.108	
18.310	-0.337	-0.120	
18.315	0.210	-0.139	
18.320	-0.153	-0.126	
18.325	-0.436	-0.121	
18.330	-0.003	-0.143	
18.335	0.101	-0.144	
18.340	-0.409	-0.127	
18.345	-0.194	-0.138	
18.350	0.239	-0.143	
18.355	-0.294	-0.120	
18.360	-0.325	-0.117	
18.365	0.224	-0.128	
18.370	-0.134	-0.110	
18.375	-0.412	-0.102	
18.380	0.061	-0.120	
18.385	0.158	-0.113	
18.390	-0.363	-0.088	
18.395	-0.117	-0.091	
18.400	0.372	-0.086	
18.405	-0.246	-0.050	
18.410	-0.287	-0.042	
18.415	0.303	-0.054	
18.420	-0.079	-0.039	
18.425	-0.367	-0.035	
18.430	0.136	-0.057	
18.435	0.224	-0.052	
18.440	-0.329	-0.028	
18.445	-0.076	-0.035	
18.450	0.415	-0.035	
18.455	-0.224	-0.004	
18.460	-0.253	-0.001	
18.465	0.392	-0.015	
18.470	-0.034	0.003	
18.475	-0.332	0.012	
18.480	0.189	-0.010	
18.485	0.245	-0.005	
18.490	-0.331	0.014	
18.495	-0.076	-0.002	
18.500	0.433	-0.012	
18.505	-0.218	0.012	
18.510	-0.244	0.010	
18.515	0.386	-0.008	
18.520	-0.020	0.009	
18.525	-0.332	0.016	
18.530	0.206	-0.006	
18.535	0.270	0.001	
18.540	-0.308	0.024	
18.545	-0.060	0.012	
18.550	0.424	0.004	
18.555	-0.217	0.026	
18.560	-0.242	0.020	
18.565	0.402	-0.000	
18.570	-0.021	0.015	
18.575	-0.323	0.021	
18.580	0.221	-0.000	
18.585	0.268	0.007	
18.590	-0.308	0.030	
18.595	-0.046	0.018	
18.600	0.468	0.012	
18.605	-0.194	0.039	
18.610	-0.210	0.039	
18.615	0.477	0.025	
18.620	0.055	0.051	
18.625	-0.296	0.067	
18.630	0.250	0.050	
18.635	0.308	0.056	
18.640	-0.282	0.075	
18.645	-0.003	0.059	
18.650	0.471	0.048	
18.655	-0.210	0.068	
18.660	-0.233	0.057	
18.665	0.389	0.027	
18.670	-0.046	0.031	
18.675	-0.351	0.024	
18.680	0.172	-0.010	
18.685	0.224	-0.015	
18.690	-0.334	-0.001	
18.695	-0.069	-0.018	
18.700	0.408	-0.026	
18.705	-0.224	-0.001	
18.710	-0.247	-0.002	
18.715	0.381	-0.017	
18.720	-0.055	-0.000	
18.725	-0.343	0.005	
18.730	0.168	-0.020	
18.735	0.259	-0.017	
18.740	-0.247	0.008	
18.745	0.296	0.021	
18.750	0.956	0.084	
18.755	0.190	0.210	
18.760	0.041	0.297	
18.765	0.607	0.325	
18.770	-0.008	0.337	
18.775	-0.349	0.291	
18.780	0.148	0.190	
18.785	0.194	0.111	
18.790	-0.335	0.061	
18.795	-0.069	0.000	
18.800	0.387	-0.034	
18.805	-0.246	-0.023	
18.810	-0.252	-0.030	
18.815	0.370	-0.045	
18.820	-0.064	-0.025	
18.825	-0.345	-0.015	
18.830	0.181	-0.034	
18.835	0.218	-0.026	
18.840	-0.323	-0.004	
18.845	-0.037	-0.013	
18.850	0.441	-0.014	
18.855	-0.224	0.017	
18.860	-0.238	0.018	
18.865	0.401	0.001	
18.870	-0.041	0.017	
18.875	-0.325	0.021	
18.880	0.239	-0.001	
18.885	0.265	0.007	
18.890	-0.310	0.031	
18.895	-0.038	0.019	
18.900	0.450	0.013	
18.905	-0.207	0.037	
18.910	-0.212	0.034	
18.915	0.444	0.018	
18.920	-0.008	0.037	
18.925	-0.302	0.046	
18.930	0.267	0.026	
18.935	0.288	0.035	
18.940	-0.288	0.059	
18.945	0.011	0.047	
18.950	0.498	0.043	
18.955	-0.172	0.072	
18.960	-0.165	0.072	
18.965	0.526	0.060	
18.970	0.058	0.087	
18.975	-0.256	0.102	
18.980	0.367	0.086	
18.985	0.401	0.103	
18.990	-0.239	0.135	
18.995	0.107	0.128	
19.000	0.604	0.127	
19.005	-0.124	0.158	
19.010	-0.122	0.155	
19.015	0.601	0.136	
19.020	0.133	0.157	
19.025	-0.224	0.168	
19.030	0.405	0.147	
19.035	0.384	0.154	
19.040	-0.262	0.171	
19.045	0.035	0.143	
19.050	0.479	0.116	
19.055	-0.226	0.117	
19.060	-0.252	0.085	
19.065	0.319	0.035	
19.070	-0.131	0.016	
19.075	-0.407	-0.013	
19.080	0.050	-0.066	
19.085	0.041	-0.092	
19.090	-0.424	-0.101	
19.095	-0.172	-0.132	
19.100	0.219	-0.149	
19.105	-0.325	-0.132	
19.110	-0.313	-0.133	
19.115	0.244	-0.142	
19.120	-0.156	-0.119	
19.125	-0.404	-0.108	
19.130	0.064	-0.124	
19.135	0.072	-0.118	
19.140	-0.403	-0.103	
19.145	-0.131	-0.116	
19.150	0.277	-0.119	
19.155	-0.300	-0.093	
19.160	-0.291	-0.091	
19.165	0.285	-0.101	
19.170	-0.134	-0.081	
19.175	-0.383	-0.073	
19.180	0.123	-0.091	
19.185	0.126	-0.084	
19.190	-0.369	-0.064	
19.195	-0.085	-0.075	
19.200	0.358	-0.075	
19.205	-0.265	-0.044	
19.210	-0.250	-0.040	
19.215	0.341	-0.051	
19.220	-0.110	-0.031	
19.225	-0.361	-0.027	
19.230	0.163	-0.051	
19.235	0.158	-0.048	
19.240	-0.360	-0.032	
19.245	-0.082	-0.048	
19.250	0.361	-0.054	
19.255	-0.261	-0.030	
19.260	-0.247	-0.031	
19.265	0.367	-0.044	
19.270	-0.090	-0.024	
19.275	-0.348	-0.017	
19.280	0.190	-0.038	
19.285	0.192	-0.031	
19.290	-0.342	-0.011	
19.295	-0.052	-0.024	
19.300	0.389	-0.029	
19.305	-0.246	-0.004	
19.310	-0.226	-0.006	
19.315	0.398	-0.020	
19.320	-0.089	-0.000	
19.325	-0.340	0.003	
19.330	0.218	-0.021	
19.335	0.209	-0.015	
19.340	-0.334	0.005	
19.345	-0.027	-0.009	
19.350	0.431	-0.012	
19.355	-0.226	0.017	
19.360	-0.212	0.017	
19.365	0.424	0.004	
19.370	-0.058	0.023	
19.375	-0.323	0.028	
19.380	0.239	0.003	
19.385	0.218	0.008	
19.390	-0.328	0.025	
19.395	-0.017	0.008	
19.400	0.427	0.001	
19.405	-0.223	0.025	
19.410	-0.203	0.023	
19.415	0.436	0.008	
19.420	-0.063	0.028	
19.425	-0.323	0.032	
19.430	0.255	0.007	
19.435	0.230	0.012	
19.440	-0.314	0.031	
19.445	0.026	0.018	
19.450	0.489	0.018	
19.455	-0.194	0.053	
19.460	-0.163	0.057	
19.465	0.498	0.048	
19.470	-0.029	0.071	
19.475	-0.294	0.077	
19.480	0.309	0.051	
19.485	0.283	0.057	
19.490	-0.291	0.076	
19.495	0.040	0.060	
19.500	0.465	0.052	
19.505	-0.226	0.073	
19.510	-0.210	0.061	
19.515	0.415	0.033	
19.520	-0.085	0.038	
19.525	-0.331	0.029	
19.530	0.244	-0.004	
19.535	0.198	-0.003	
19.540	-0.343	0.012	
19.545	-0.038	-0.007	
19.550	0.404	-0.016	
19.555	-0.246	0.007	
19.560	-0.220	0.002	
19.565	0.401	-0.013	
19.570	-0.095	0.004	
19.575	-0.334	0.006	
19.580	0.306	-0.015	
19.585	0.439	0.010	
19.590	-0.101	0.071	
19.595	0.535	0.123	
19.600	0.957	0.215	
19.605	0.018	0.335	
19.610	-0.092	0.373	
19.615	0.483	0.338	
19.620	-0.084	0.295	
19.625	-0.339	0.218	
19.630	0.218	0.115	
19.635	0.161	0.055	
19.640	-0.354	0.024	
19.645	-0.056	-0.023	
19.650	0.357	-0.048	
19.655	-0.271	-0.033	
19.660	-0.236	-0.039	
19.665	0.366	-0.052	
19.670	-0.119	-0.032	
19.675	-0.355	-0.026	
19.680	0.187	-0.048	
19.685	0.142	-0.043	
19.690	-0.357	-0.027	
19.695	-0.052	-0.043	
19.700	0.363	-0.047	
19.705	-0.271	-0.022	
19.710	-0.232	-0.025	
19.715	0.378	-0.038	
19.720	-0.114	-0.018	
19.725	-0.345	-0.015	
19.730	0.215	-0.037	
19.735	0.157	-0.030	
19.740	-0.351	-0.013	
19.745	-0.034	-0.029	
19.750	0.389	-0.033	
19.755	-0.259	-0.006	
19.760	-0.212	-0.008	
19.765	0.425	-0.019	
19.770	-0.087	0.004	
19.775	-0.320	0.012	
19.780	0.271	-0.008	
19.785	0.209	0.004	
19.790	-0.329	0.026	
19.795	0.003	0.011	
19.800	0.434	0.007	
19.805	-0.232	0.033	
19.810	-0.185	0.030	
19.815	0.469	0.017	
19.820	-0.055	0.040	
19.825	-0.293	0.047	
19.830	0.332	0.027	
19.835	0.271	0.042	
19.840	-0.291	0.069	
19.845	0.105	0.060	
19.850	0.544	0.066	
19.855	-0.172	0.103	
19.860	-0.119	0.107	
19.865	0.587	0.097	
19.870	0.030	0.124	
19.875	-0.252	0.133	
19.880	0.378	0.108	
19.885	0.283	0.113	
19.890	-0.303	0.124	
19.895	0.020	0.092	
19.900	0.393	0.066	
19.905	-0.279	0.065	
19.910	-0.253	0.033	
19.915	0.317	-0.010	
19.920	-0.174	-0.020	
19.925	-0.403	-0.041	
19.930	0.091	-0.085	
19.935	0.001	-0.101	
19.940	-0.428	-0.105	
19.945	-0.131	-0.134	
19.950	0.223	-0.145	
19.955	-0.349	-0.125	
19.960	-0.297	-0.128	
19.965	0.250	-0.138	
19.970	-0.195	-0.117	
19.975	-0.399	-0.110	
19.980	0.113	-0.127	
19.985	0.023	-0.119	
19.990	-0.430	-0.105	
19.995	-0.128	-0.124	
20.000	0.245	-0.130	
20.005	-0.328	-0.108	
20.010	-0.271	-0.109	
20.015	0.305	-0.115	
20.020	-0.169	-0.089	
20.025	-0.375	-0.079	
20.030	0.168	-0.094	
20.035	0.081	-0.082	
20.040	-0.387	-0.064	
20.045	-0.060	-0.078	
20.050	0.346	-0.078	
20.055	-0.291	-0.048	
20.060	-0.232	-0.046	
20.065	0.381	-0.053	
20.070	-0.137	-0.029	
20.075	-0.351	-0.023	
20.080	0.226	-0.044	
20.085	0.126	-0.036	
20.090	-0.369	-0.020	
20.095	-0.029	-0.038	
20.100	0.369	-0.043	
20.105	-0.274	-0.017	
20.110	-0.215	-0.019	
20.115	0.408	-0.031	
20.120	-0.125	-0.009	
20.125	-0.340	-0.005	
20.130	0.239	-0.028	
20.135	0.143	-0.021	
20.140	-0.351	-0.006	
20.145	0.009	-0.023	
20.150	0.398	-0.024	
20.155	-0.268	0.005	
20.160	-0.204	0.002	
20.165	0.427	-0.011	
20.170	-0.116	0.009	
20.175	-0.328	0.011	
20.180	0.264	-0.013	
20.185	0.149	-0.007	
20.190	-0.355	0.007	
20.195	0.004	-0.013	
20.200	0.401	-0.018	
20.205	-0.262	0.008	
20.210	-0.194	0.005	
20.215	0.444	-0.007	
20.220	-0.105	0.015	
20.225	-0.319	0.020	
20.230	0.294	-0.003	
20.235	0.181	0.008	
20.240	-0.337	0.026	
20.245	0.041	0.010	
20.250	0.424	0.007	
20.255	-0.253	0.034	
20.260	-0.182	0.029	
20.265	0.462	0.014	
20.270	-0.099	0.034	
20.275	-0.314	0.035	
20.280	0.312	0.010	
20.285	0.204	0.019	
20.290	-0.331	0.039	
20.295	0.044	0.022	
20.300	0.434	0.018	
20.305	-0.250	0.044	
20.310	-0.175	0.037	
20.315	0.474	0.021	
20.320	-0.093	0.041	
20.325	-0.303	0.042	
20.330	0.322	0.018	
20.335	0.187	0.027	
20.340	-0.337	0.043	
20.345	0.050	0.023	
20.350	0.433	0.018	
20.355	-0.252	0.043	
20.360	-0.175	0.036	
20.365	0.471	0.020	
20.370	-0.098	0.039	
20.375	-0.302	0.040	
20.380	0.343	0.017	
20.385	0.230	0.030	
20.390	-0.308	0.054	
20.395	0.113	0.044	
20.400	0.482	0.049	
20.405	-0.230	0.081	
20.410	-0.149	0.076	
20.415	0.524	0.060	
20.420	-0.061	0.079	
20.425	-0.276	0.080	
20.430	0.380	0.055	
20.435	0.223	0.065	
20.440	-0.332	0.081	
20.445	0.037	0.055	
20.450	0.387	0.038	
20.455	-0.279	0.047	
20.460	-0.198	0.026	
20.465	0.430	-0.001	
20.470	-0.133	0.011	
20.475	-0.332	0.007	
20.480	0.271	-0.021	
20.485	0.131	-0.015	
20.490	-0.360	-0.001	
20.495	0.018	-0.020	
20.500	0.380	-0.024	
20.505	-0.279	0.002	
20.510	-0.195	-0.003	
20.515	0.492	-0.013	
20.520	0.047	0.023	
20.525	-0.084	0.060	
20.530	0.870	0.101	
20.535	0.738	0.214	
20.540	-0.110	0.332	
20.545	0.288	0.367	
20.550	0.514	0.361	
20.555	-0.249	0.341	
20.560	-0.178	0.261	
20.565	0.441	0.165	
20.570	-0.137	0.114	
20.575	-0.342	0.060	
20.580	0.244	-0.005	
20.585	0.079	-0.025	
20.590	-0.386	-0.030	
20.595	-0.034	-0.060	
20.600	0.322	-0.070	
20.605	-0.306	-0.048	
20.610	-0.218	-0.052	
20.615	0.387	-0.060	
20.620	-0.160	-0.035	
20.625	-0.351	-0.030	
20.630	0.236	-0.050	
20.635	0.084	-0.041	
20.640	-0.377	-0.028	
20.645	0.004	-0.047	
20.650	0.364	-0.048	
20.655	-0.290	-0.019	
20.660	-0.201	-0.021	
20.665	0.428	-0.030	
20.670	-0.137	-0.005	
20.675	-0.322	0.001	
20.680	0.305	-0.019	
20.685	0.149	-0.005	
20.690	-0.345	0.015	
20.695	0.062	-0.000	
20.700	0.425	0.002	
20.705	-0.258	0.033	
20.710	-0.157	0.031	
20.715	0.506	0.021	
20.720	-0.096	0.047	
20.725	-0.287	0.053	
20.730	0.372	0.032	
20.735	0.218	0.047	
20.740	-0.306	0.069	
20.745	0.148	0.055	
20.750	0.503	0.061	
20.755	-0.215	0.096	
20.760	-0.098	0.095	
20.765	0.599	0.085	
20.770	-0.023	0.114	
20.775	-0.229	0.123	
20.780	0.485	0.104	
20.785	0.319	0.125	
20.790	-0.256	0.152	
20.795	0.248	0.140	
20.800	0.599	0.147	
20.805	-0.174	0.182	
20.810	-0.061	0.174	
20.815	0.636	0.154	
20.820	-0.021	0.171	
20.825	-0.249	0.163	
20.830	0.398	0.124	
20.835	0.172	0.115	
20.840	-0.355	0.107	
20.845	0.020	0.059	
20.850	0.319	0.025	
20.855	-0.332	0.019	
20.860	-0.246	-0.015	
20.865	0.303	-0.053	
20.870	-0.227	-0.056	
20.875	-0.403	-0.072	
20.880	0.134	-0.109	
20.885	-0.041	-0.114	
20.890	-0.444	-0.114	
20.895	-0.095	-0.140	
20.900	0.215	-0.147	
20.905	-0.369	-0.124	
20.910	-0.264	-0.126	
20.915	0.291	-0.132	
20.920	-0.221	-0.106	
20.925	-0.386	-0.099	
20.930	0.189	-0.114	
20.935	0.012	-0.100	
20.940	-0.412	-0.084	
20.945	-0.041	-0.100	
20.950	0.276	-0.099	
20.955	-0.339	-0.073	
20.960	-0.227	-0.075	
20.965	0.366	-0.082	
20.970	-0.188	-0.056	
20.975	-0.352	-0.049	
20.980	0.245	-0.067	
20.985	0.053	-0.054	
20.990	-0.386	-0.040	
20.995	0.015	-0.058	
21.000	0.344	-0.056	
21.005	-0.306	-0.027	
21.010	-0.192	-0.029	
21.015	0.424	-0.037	
21.020	-0.159	-0.011	
21.025	-0.331	-0.007	
21.030	0.287	-0.028	
21.035	0.090	-0.018	
21.040	-0.367	-0.005	
21.045	0.044	-0.026	
21.050	0.369	-0.027	
21.055	-0.297	-0.000	
21.060	-0.180	-0.006	
21.065	0.444	-0.017	
21.070	-0.153	0.006	
21.075	-0.323	0.008	
21.080	0.308	-0.016	
21.085	0.108	-0.006	
21.090	-0.363	0.008	
21.095	0.058	-0.013	
21.100	0.376	-0.015	
21.105	-0.290	0.011	
21.110	-0.168	0.005	
21.115	0.457	-0.007	
21.120	-0.145	0.016	
21.125	-0.311	0.018	
21.130	0.331	-0.005	
21.135	0.123	0.007	
21.140	-0.352	0.022	
21.145	0.082	0.002	
21.150	0.396	0.002	
21.155	-0.281	0.028	
21.160	-0.153	0.022	
21.165	0.492	0.010	
21.170	-0.130	0.035	
21.175	-0.294	0.038	
21.180	0.367	0.016	
21.185	0.155	0.030	
21.190	-0.334	0.047	
21.195	0.122	0.029	
21.200	0.422	0.030	
21.205	-0.268	0.057	
21.210	-0.137	0.048	
21.215	0.517	0.034	
21.220	-0.114	0.057	
21.225	-0.281	0.058	
21.230	0.384	0.034	
21.235	0.155	0.046	
21.240	-0.332	0.060	
21.245	0.125	0.038	
21.250	0.425	0.036	
21.255	-0.265	0.061	
21.260	-0.128	0.051	
21.265	0.523	0.037	
21.270	-0.117	0.060	
21.275	-0.281	0.061	
21.280	0.389	0.037	
21.285	0.166	0.048	
21.290	-0.328	0.063	
21.295	0.142	0.043	
21.300	0.439	0.043	
21.305	-0.264	0.070	
21.310	-0.128	0.061	
21.315	0.518	0.045	
21.320	-0.122	0.065	
21.325	-0.281	0.062	
21.330	0.393	0.036	
21.335	0.152	0.047	
21.340	-0.334	0.061	
21.345	0.139	0.039	
21.350	0.431	0.038	
21.355	-0.268	0.064	
21.360	-0.127	0.055	
21.365	0.523	0.040	
21.370	-0.125	0.062	
21.375	-0.282	0.061	
21.380	0.392	0.035	
21.385	0.152	0.047	
21.390	-0.326	0.060	
21.395	0.174	0.041	
21.400	0.482	0.047	
21.405	-0.229	0.083	
21.410	-0.063	0.084	
21.415	0.601	0.080	
21.420	-0.090	0.112	
21.425	-0.252	0.115	
21.430	0.456	0.088	
21.435	0.215	0.100	
21.440	-0.303	0.114	
21.445	0.194	0.090	
21.450	0.444	0.087	
21.455	-0.271	0.106	
21.460	-0.145	0.085	
21.465	0.465	0.054	
21.470	-0.162	0.058	
21.475	-0.311	0.041	
21.480	0.326	0.004	
21.485	0.070	0.004	
21.490	-0.369	0.008	
21.495	0.070	-0.019	
21.500	0.348	-0.024	
21.505	-0.305	-0.000	
21.510	-0.156	-0.008	
21.515	0.457	-0.018	
21.520	-0.171	0.008	
21.525	-0.302	0.011	
21.530	0.466	-0.004	
21.535	0.427	0.038	
21.540	-0.058	0.110	
21.545	0.756	0.174	
21.550	0.959	0.285	
21.555	-0.082	0.407	
21.560	-0.031	0.426	
21.565	0.540	0.376	
21.570	-0.148	0.323	
21.575	-0.302	0.235	
21.580	0.332	0.129	
21.585	0.059	0.072	
21.590	-0.375	0.035	
21.595	0.055	-0.020	
21.600	0.305	-0.041	
21.605	-0.331	-0.028	
21.610	-0.183	-0.042	
21.615	0.398	-0.055	
21.620	-0.198	-0.032	
21.625	-0.331	-0.030	
21.630	0.291	-0.050	
21.635	0.026	-0.037	
21.640	-0.383	-0.026	
21.645	0.055	-0.048	
21.650	0.317	-0.047	
21.655	-0.320	-0.021	
21.660	-0.160	-0.027	
21.665	0.450	-0.034	
21.670	-0.172	-0.004	
21.675	-0.305	0.001	
21.680	0.343	-0.016	
21.685	0.067	-0.001	
21.690	-0.360	0.012	
21.695	0.110	-0.009	
21.700	0.367	-0.007	
21.705	-0.291	0.021	
21.710	-0.128	0.015	
21.715	0.492	0.006	
21.720	-0.149	0.034	
21.725	-0.279	0.037	
21.730	0.386	0.017	
21.735	0.110	0.032	
21.740	-0.334	0.046	
21.745	0.174	0.026	
21.750	0.430	0.032	
21.755	-0.258	0.065	
21.760	-0.076	0.062	
21.765	0.579	0.057	
21.770	-0.095	0.089	
21.775	-0.223	0.096	
21.780	0.511	0.081	
21.785	0.229	0.106	
21.790	-0.268	0.131	
21.795	0.303	0.119	
21.800	0.555	0.132	
21.805	-0.195	0.170	
21.810	0.018	0.166	
21.815	0.687	0.158	
21.820	-0.027	0.188	
21.825	-0.178	0.189	
21.830	0.561	0.162	
21.835	0.247	0.174	
21.840	-0.282	0.184	
21.845	0.227	0.150	
21.850	0.427	0.134	
21.855	-0.293	0.137	
21.860	-0.145	0.100	
21.865	0.424	0.055	
21.870	-0.212	0.046	
21.875	-0.345	0.017	
21.880	0.232	-0.031	
21.885	-0.060	-0.046	
21.890	-0.428	-0.060	
21.895	-0.021	-0.099	
21.900	0.198	-0.112	
21.905	-0.380	-0.098	
21.910	-0.218	-0.109	
21.915	0.320	-0.117	
21.920	-0.246	-0.092	
21.925	-0.357	-0.086	
21.930	0.235	-0.101	
21.935	-0.049	-0.087	
21.940	-0.418	-0.077	
21.945	0.008	-0.098	
21.950	0.235	-0.098	
21.955	-0.358	-0.075	
21.960	-0.185	-0.080	
21.965	0.378	-0.084	
21.970	-0.217	-0.054	
21.975	-0.329	-0.047	
21.980	0.303	-0.061	
21.985	0.001	-0.044	
21.990	-0.392	-0.032	
21.995	0.062	-0.053	
22.000	0.293	-0.052	
22.005	-0.328	-0.028	
22.010	-0.157	-0.034	
22.015	0.425	-0.041	
22.020	-0.198	-0.014	
22.025	-0.305	-0.011	
22.030	0.343	-0.029	
22.035	0.033	-0.013	
22.040	-0.366	-0.001	
22.045	0.123	-0.021	
22.050	0.338	-0.017	
22.055	-0.308	0.011	
22.060	-0.124	0.004	
22.065	0.472	-0.004	
22.070	-0.172	0.023	
22.075	-0.281	0.025	
22.080	0.389	0.005	
22.085	0.067	0.021	
22.090	-0.352	0.032	
22.095	0.140	0.009	
22.100	0.355	0.009	
22.105	-0.300	0.033	
22.110	-0.114	0.022	
22.115	0.492	0.011	
22.120	-0.162	0.036	
22.125	-0.270	0.037	
22.130	0.402	0.017	
22.135	0.079	0.032	
22.140	-0.340	0.044	
22.145	0.168	0.022	
22.150	0.367	0.023	
22.155	-0.294	0.048	
22.160	-0.099	0.036	
22.165	0.511	0.025	
22.170	-0.157	0.050	
22.175	-0.264	0.050	
22.180	0.418	0.028	
22.185	0.090	0.043	
22.190	-0.332	0.055	
22.195	0.192	0.032	
22.200	0.390	0.036	
22.205	-0.285	0.063	
22.210	-0.087	0.052	
22.215	0.526	0.040	
22.220	-0.153	0.064	
22.225	-0.256	0.063	
22.230	0.430	0.040	
22.235	0.101	0.053	
22.240	-0.326	0.064	
22.245	0.195	0.041	
22.250	0.398	0.044	
22.255	-0.279	0.070	
22.260	-0.085	0.058	
22.265	0.530	0.046	
22.270	-0.151	0.069	
22.275	-0.258	0.066	
22.280	0.428	0.042	
22.285	0.093	0.054	
22.290	-0.328	0.063	
22.295	0.203	0.039	
22.300	0.395	0.042	
22.305	-0.281	0.069	
22.310	-0.081	0.058	
22.315	0.532	0.046	
22.320	-0.146	0.070	
22.325	-0.250	0.068	
22.330	0.444	0.046	
22.335	0.101	0.060	
22.340	-0.325	0.071	
22.345	0.215	0.048	
22.350	0.398	0.051	
22.355	-0.282	0.076	
22.360	-0.078	0.064	
22.365	0.527	0.050	
22.370	-0.153	0.072	
22.375	-0.249	0.068	
22.380	0.436	0.044	
22.385	0.084	0.057	
22.390	-0.334	0.065	
22.395	0.189	0.039	
22.400	0.378	0.038	
22.405	-0.290	0.061	
22.410	-0.069	0.049	
22.415	0.562	0.040	
22.420	-0.125	0.071	
22.425	-0.207	0.078	
22.430	0.512	0.066	
22.435	0.133	0.092	
22.440	-0.306	0.109	
22.445	0.262	0.087	
22.450	0.445	0.091	
22.455	-0.259	0.117	
22.460	-0.040	0.103	
22.465	0.550	0.087	
22.470	-0.163	0.105	
22.475	-0.267	0.092	
22.480	0.386	0.054	
22.485	0.012	0.050	
22.490	-0.367	0.040	
22.495	0.133	0.001	
22.500	0.300	-0.010	
22.505	-0.326	0.006	
22.510	-0.122	-0.009	
22.515	0.445	-0.021	
22.520	-0.203	0.003	
22.525	-0.281	0.003	
22.530	0.375	-0.015	
22.535	0.004	0.001	
22.540	-0.369	0.009	
22.545	0.201	-0.013	
22.550	0.569	0.006	
22.555	-0.034	0.075	
22.560	0.518	0.142	
22.565	1.140	0.247	
22.570	0.198	0.392	
22.575	-0.134	0.455	
22.580	0.486	0.422	
22.585	0.038	0.368	
22.590	-0.355	0.283	
22.595	0.140	0.164	
22.600	0.280	0.085	
22.605	-0.343	0.047	
22.610	-0.139	-0.005	
22.615	0.399	-0.040	
22.620	-0.235	-0.031	
22.625	-0.310	-0.038	
22.630	0.320	-0.059	
22.635	-0.041	-0.045	
22.640	-0.387	-0.037	
22.645	0.097	-0.059	
22.650	0.258	-0.056	
22.655	-0.345	-0.032	
22.660	-0.134	-0.040	
22.665	0.419	-0.046	
22.670	-0.220	-0.018	
22.675	-0.287	-0.015	
22.680	0.358	-0.031	
22.685	-0.018	-0.014	
22.690	-0.369	-0.005	
22.695	0.140	-0.028	
22.700	0.290	-0.025	
22.705	-0.328	-0.001	
22.710	-0.105	-0.011	
22.715	0.463	-0.017	
22.720	-0.195	0.012	
22.725	-0.264	0.015	
22.730	0.407	-0.001	
22.735	0.023	0.018	
22.740	-0.343	0.029	
22.745	0.197	0.008	
22.750	0.340	0.014	
22.755	-0.300	0.041	
22.760	-0.067	0.031	
22.765	0.520	0.025	
22.770	-0.168	0.054	
22.775	-0.230	0.057	
22.780	0.476	0.040	
22.785	0.094	0.062	
22.790	-0.300	0.079	
22.795	0.293	0.062	
22.800	0.442	0.076	
22.805	-0.247	0.112	
22.810	0.032	0.108	
22.815	0.645	0.107	
22.820	-0.098	0.144	
22.825	-0.165	0.148	
22.830	0.598	0.131	
22.835	0.201	0.155	
22.840	-0.250	0.173	
22.845	0.364	0.153	
22.850	0.477	0.159	
22.855	-0.252	0.182	
22.860	-0.021	0.157	
22.865	0.524	0.127	
22.870	-0.197	0.127	
22.875	-0.281	0.096	
22.880	0.320	0.044	
22.885	-0.089	0.022	
22.890	-0.427	-0.006	
22.895	0.011	-0.061	
22.900	0.116	-0.091	
22.905	-0.421	-0.097	
22.910	-0.210	-0.125	
22.915	0.251	-0.143	
22.920	-0.311	-0.126	
22.925	-0.363	-0.129	
22.930	0.204	-0.145	
22.935	-0.139	-0.130	
22.940	-0.447	-0.123	
22.945	-0.002	-0.144	
22.950	0.128	-0.143	
22.955	-0.401	-0.123	
22.960	-0.180	-0.130	
22.965	0.322	-0.129	
22.970	-0.276	-0.097	
22.975	-0.326	-0.088	
22.980	0.287	-0.098	
22.985	-0.087	-0.077	
22.990	-0.404	-0.066	
22.995	0.091	-0.085	
23.000	0.209	-0.080	
23.005	-0.360	-0.055	
23.010	-0.130	-0.063	
23.015	0.401	-0.065	
23.020	-0.235	-0.034	
23.025	-0.282	-0.028	
23.030	0.370	-0.040	
23.035	-0.029	-0.019	
23.040	-0.363	-0.007	
23.045	0.165	-0.027	
23.050	0.276	-0.021	
23.055	-0.334	0.004	
23.060	-0.095	-0.007	
23.065	0.445	-0.015	
23.070	-0.217	0.011	
23.075	-0.265	0.010	
23.080	0.395	-0.009	
23.085	-0.017	0.007	
23.090	-0.354	0.014	
23.095	0.186	-0.010	
23.100	0.294	-0.006	
23.105	-0.323	0.018	
23.110	-0.078	0.007	
23.115	0.471	-0.000	
23.120	-0.209	0.026	
23.125	-0.250	0.026	
23.130	0.422	0.007	
23.135	-0.002	0.024	
23.140	-0.342	0.032	
23.145	0.204	0.007	
23.150	0.306	0.011	
23.155	-0.320	0.034	
23.160	-0.066	0.020	
23.165	0.482	0.011	
23.170	-0.203	0.037	
23.175	-0.244	0.035	
23.180	0.439	0.016	
23.185	0.008	0.033	
23.190	-0.335	0.041	
23.195	0.227	0.017	
23.200	0.317	0.022	
23.205	-0.313	0.046	
23.210	-0.053	0.033	
23.215	0.497	0.023	
23.220	-0.200	0.049	
23.225	-0.241	0.046	
23.230	0.431	0.024	
23.235	-0.006	0.038	
23.240	-0.342	0.041	
23.245	0.219	0.013	
23.250	0.311	0.016	
23.255	-0.317	0.039	
23.260	-0.060	0.025	
23.265	0.486	0.016	
23.270	-0.198	0.042	
23.275	-0.238	0.040	
23.280	0.442	0.021	
23.285	0.003	0.037	
23.290	-0.334	0.044	
23.295	0.236	0.019	
23.300	0.314	0.025	
23.305	-0.317	0.048	
23.310	-0.058	0.033	
23.315	0.483	0.022	
23.320	-0.203	0.045	
23.325	-0.236	0.041	
23.330	0.450	0.021	
23.335	0.003	0.038	
23.340	-0.335	0.045	
23.345	0.232	0.020	
23.350	0.308	0.024	
23.355	-0.319	0.046	
23.360	-0.047	0.031	
23.365	0.488	0.021	
23.370	-0.204	0.046	
23.375	-0.236	0.042	
23.380	0.451	0.022	
23.385	0.000	0.039	
23.390	-0.339	0.045	
23.395	0.226	0.019	
23.400	0.296	0.022	
23.405	-0.320	0.042	
23.410	-0.038	0.026	
23.415	0.526	0.020	
23.420	-0.171	0.052	
23.425	-0.191	0.058	
23.430	0.546	0.050	
23.435	0.070	0.081	
23.440	-0.303	0.100	
23.445	0.302	0.079	
23.450	0.376	0.086	
23.455	-0.279	0.109	
23.460	0.017	0.093	
23.465	0.544	0.081	
23.470	-0.197	0.103	
23.475	-0.239	0.090	
23.480	0.416	0.055	
23.485	-0.047	0.053	
23.490	-0.355	0.041	
23.495	0.186	0.001	
23.500	0.236	-0.007	
23.505	-0.352	0.004	
23.510	-0.090	-0.017	
23.515	0.421	-0.029	
23.520	-0.241	-0.006	
23.525	-0.259	-0.009	
23.530	0.401	-0.025	
23.535	-0.056	-0.006	
23.540	-0.367	0.001	
23.545	0.194	-0.023	
23.550	0.386	-0.012	
23.555	-0.140	0.033	
23.560	0.512	0.078	
23.565	1.159	0.180	
23.570	0.245	0.339	
23.575	-0.020	0.429	
23.580	0.569	0.430	
23.585	-0.015	0.402	
23.590	-0.355	0.323	
23.595	0.187	0.199	
23.600	0.230	0.113	
23.605	-0.355	0.063	
23.610	-0.099	0.001	
23.615	0.389	-0.038	
23.620	-0.259	-0.031	
23.625	-0.279	-0.040	
23.630	0.360	-0.059	
23.635	-0.085	-0.041	
23.640	-0.375	-0.033	
23.645	0.157	-0.054	
23.650	0.200	-0.048	
23.655	-0.361	-0.028	
23.660	-0.093	-0.041	
23.665	0.410	-0.046	
23.670	-0.252	-0.018	
23.675	-0.259	-0.017	
23.680	0.396	-0.031	
23.685	-0.063	-0.010	
23.690	-0.360	-0.002	
23.695	0.197	-0.025	
23.700	0.241	-0.019	
23.705	-0.343	0.003	
23.710	-0.056	-0.010	
23.715	0.451	-0.015	
23.720	-0.226	0.014	
23.725	-0.230	0.015	
23.730	0.447	0.002	
23.735	-0.029	0.024	
23.740	-0.334	0.033	
23.745	0.250	0.011	
23.750	0.291	0.019	
23.755	-0.316	0.043	
23.760	-0.014	0.031	
23.765	0.512	0.027	
23.770	-0.194	0.058	
23.775	-0.200	0.059	
23.780	0.511	0.045	
23.785	0.035	0.069	
23.790	-0.291	0.082	
23.795	0.343	0.063	
23.800	0.383	0.078	
23.805	-0.264	0.110	
23.810	0.087	0.103	
23.815	0.619	0.105	
23.820	-0.127	0.142	
23.825	-0.130	0.144	
23.830	0.628	0.130	
23.835	0.136	0.158	
23.840	-0.239	0.172	
23.845	0.425	0.152	
23.850	0.424	0.161	
23.855	-0.262	0.183	
23.860	0.053	0.157	
23.865	0.532	0.133	
23.870	-0.220	0.138	
23.875	-0.250	0.108	
23.880	0.361	0.057	
23.885	-0.127	0.037	
23.890	-0.415	0.006	
23.895	0.064	-0.051	
23.900	0.064	-0.080	
23.905	-0.432	-0.091	
23.910	-0.175	-0.124	
23.915	0.226	-0.143	
23.920	-0.346	-0.130	
23.925	-0.345	-0.136	
23.930	0.212	-0.153	
23.935	-0.185	-0.137	
23.940	-0.444	-0.132	
23.945	0.040	-0.153	
23.950	0.053	-0.149	
23.955	-0.428	-0.133	
23.960	-0.157	-0.145	
23.965	0.280	-0.145	
23.970	-0.314	-0.114	
23.975	-0.310	-0.109	
23.980	0.291	-0.115	
23.985	-0.145	-0.091	
23.990	-0.406	-0.081	
23.995	0.113	-0.100	
24.000	0.134	-0.093	
24.005	-0.390	-0.073	
24.010	-0.104	-0.084	
24.015	0.364	-0.085	
24.020	-0.271	-0.053	
24.025	-0.267	-0.048	
24.030	0.373	-0.057	
24.035	-0.095	-0.033	
24.040	-0.364	-0.023	
24.045	0.200	-0.043	
24.050	0.203	-0.034	
24.055	-0.358	-0.012	
24.060	-0.061	-0.025	
24.065	0.408	-0.030	
24.070	-0.256	-0.004	
24.075	-0.241	-0.007	
24.080	0.421	-0.021	
24.085	-0.072	-0.000	
24.090	-0.346	0.007	
24.095	0.235	-0.015	
24.100	0.226	-0.007	
24.105	-0.345	0.014	
24.110	-0.034	-0.001	
24.115	0.450	-0.007	
24.120	-0.235	0.021	
24.125	-0.218	0.020	
24.130	0.457	0.006	
24.135	-0.058	0.027	
24.140	-0.337	0.033	
24.145	0.258	0.008	
24.150	0.248	0.014	
24.155	-0.332	0.033	
24.160	-0.018	0.017	
24.165	0.466	0.010	
24.170	-0.229	0.037	
24.175	-0.213	0.033	
24.180	0.469	0.017	
24.185	-0.046	0.037	
24.190	-0.332	0.042	
24.195	0.267	0.017	
24.200	0.259	0.022	
24.205	-0.325	0.042	
24.210	-0.006	0.026	
24.215	0.479	0.019	
24.220	-0.224	0.046	
24.225	-0.210	0.043	
24.230	0.472	0.025	
24.235	-0.044	0.044	
24.240	-0.323	0.047	
24.245	0.290	0.022	
24.250	0.270	0.030	
24.255	-0.323	0.051	
24.260	0.009	0.036	
24.265	0.488	0.030	
24.270	-0.221	0.057	
24.275	-0.201	0.052	
24.280	0.492	0.034	
24.285	-0.041	0.053	
24.290	-0.317	0.057	
24.295	0.294	0.031	
24.300	0.271	0.037	
24.305	-0.319	0.058	
24.310	0.014	0.041	
24.315	0.480	0.033	
24.320	-0.226	0.058	
24.325	-0.203	0.052	
24.330	0.469	0.031	
24.335	-0.055	0.047	
24.340	-0.329	0.048	
24.345	0.274	0.019	
24.350	0.248	0.023	
24.355	-0.332	0.041	
24.360	-0.008	0.022	
24.365	0.468	0.015	
24.370	-0.230	0.041	
24.375	-0.206	0.037	
24.380	0.488	0.021	
24.385	-0.027	0.043	
24.390	-0.294	0.053	
24.395	0.376	0.037	
24.400	0.358	0.060	
24.405	-0.281	0.097	
24.410	0.079	0.092	
24.415	0.541	0.092	
24.420	-0.186	0.120	
24.425	-0.159	0.112	
24.430	0.540	0.089	
24.435	-0.012	0.103	
24.440	-0.311	0.101	
24.445	0.280	0.064	
24.450	0.227	0.057	
24.455	-0.351	0.060	
24.460	-0.035	0.027	
24.465	0.412	0.006	
24.470	-0.264	0.018	
24.475	-0.238	0.005	
24.480	0.392	-0.019	
24.485	-0.124	-0.008	
24.490	-0.377	-0.011	
24.495	0.180	-0.043	
24.500	0.139	-0.045	
24.505	-0.386	-0.035	
24.510	-0.087	-0.056	
24.515	0.355	-0.066	
24.520	-0.224	-0.040	
24.525	-0.029	-0.026	
24.530	0.989	0.019	
24.535	0.559	0.153	
24.540	0.012	0.289	
24.545	0.619	0.357	
24.550	0.328	0.398	
24.555	-0.352	0.387	
24.560	-0.066	0.290	
24.565	0.360	0.183	
24.570	-0.293	0.113	
24.575	-0.261	0.036	
24.580	0.351	-0.031	
24.585	-0.139	-0.044	
24.590	-0.384	-0.056	
24.595	0.169	-0.086	
24.600	0.120	-0.082	
24.605	-0.390	-0.063	
24.610	-0.076	-0.077	
24.615	0.352	-0.078	
24.620	-0.294	-0.049	
24.625	-0.253	-0.048	
24.630	0.380	-0.058	
24.635	-0.124	-0.035	
24.640	-0.361	-0.027	
24.645	0.223	-0.048	
24.650	0.166	-0.037	
24.655	-0.363	-0.016	
24.660	-0.031	-0.030	
24.665	0.412	-0.032	
24.670	-0.264	-0.003	
24.675	-0.220	-0.003	
24.680	0.448	-0.015	
24.685	-0.079	0.010	
24.690	-0.329	0.018	
24.695	0.280	-0.002	
24.700	0.224	0.009	
24.705	-0.334	0.031	
24.710	0.032	0.017	
24.715	0.482	0.017	
24.720	-0.224	0.049	
24.725	-0.174	0.050	
24.730	0.527	0.039	
24.735	-0.029	0.065	
24.740	-0.290	0.075	
24.745	0.366	0.054	
24.750	0.308	0.069	
24.755	-0.288	0.095	
24.760	0.126	0.084	
24.765	0.582	0.088	
24.770	-0.165	0.126	
24.775	-0.107	0.128	
24.780	0.643	0.118	
24.785	0.078	0.149	
24.790	-0.227	0.163	
24.795	0.492	0.145	
24.800	0.425	0.164	
24.805	-0.235	0.194	
24.810	0.223	0.182	
24.815	0.657	0.182	
24.820	-0.140	0.213	
24.825	-0.104	0.201	
24.830	0.596	0.170	
24.835	-0.026	0.172	
24.840	-0.313	0.152	
24.845	0.267	0.097	
24.850	0.151	0.068	
24.855	-0.390	0.050	
24.860	-0.093	-0.001	
24.865	0.277	-0.040	
24.870	-0.343	-0.046	
24.875	-0.300	-0.074	
24.880	0.261	-0.105	
24.885	-0.209	-0.100	
24.890	-0.430	-0.107	
24.895	0.078	-0.136	
24.900	-0.002	-0.138	
24.905	-0.442	-0.130	
24.910	-0.133	-0.150	
24.915	0.247	-0.153	
24.920	-0.343	-0.125	
24.925	-0.291	-0.122	
24.930	0.288	-0.128	
24.935	-0.188	-0.102	
24.940	-0.403	-0.094	
24.945	0.145	-0.111	
24.950	0.058	-0.102	
24.955	-0.410	-0.085	
24.960	-0.082	-0.100	
24.965	0.326	-0.101	
24.970	-0.310	-0.070	
24.975	-0.252	-0.068	
24.980	0.367	-0.074	
24.985	-0.148	-0.048	
24.990	-0.367	-0.040	
24.995	0.216	-0.060	
25.000	0.128	-0.049	
25.005	-0.377	-0.031	
25.010	-0.043	-0.047	
25.015	0.373	-0.050	
25.020	-0.282	-0.023	
25.025	-0.223	-0.024	
25.030	0.424	-0.035	
25.035	-0.122	-0.010	
25.040	-0.343	-0.004	
25.045	0.261	-0.025	
25.050	0.163	-0.015	
25.055	-0.361	0.003	
25.060	-0.006	-0.015	
25.065	0.407	-0.019	
25.070	-0.270	0.007	
25.075	-0.206	0.003	
25.080	0.450	-0.010	
25.085	-0.105	0.012	
25.090	-0.328	0.017	
25.095	0.296	-0.005	
25.100	0.189	0.006	
25.105	-0.345	0.025	
25.110	0.027	0.008	
25.115	0.434	0.005	
25.120	-0.256	0.032	
25.125	-0.186	0.027	
25.130	0.479	0.013	
25.135	-0.093	0.035	
25.140	-0.316	0.038	
25.145	0.311	0.014	
25.150	0.200	0.022	
25.155	-0.337	0.040	
25.160	0.049	0.021	
25.165	0.456	0.018	
25.170	-0.247	0.046	
25.175	-0.175	0.042	
25.180	0.498	0.027	
25.185	-0.082	0.049	
25.190	-0.311	0.052	
25.195	0.320	0.026	
25.200	0.206	0.033	
25.205	-0.335	0.049	
25.210	0.049	0.028	
25.215	0.456	0.023	
25.220	-0.247	0.049	
25.225	-0.177	0.043	
25.230	0.497	0.027	
25.235	-0.085	0.048	
25.240	-0.313	0.050	
25.245	0.319	0.024	
25.250	0.198	0.031	
25.255	-0.335	0.046	
25.260	0.055	0.026	
25.265	0.459	0.022	
25.270	-0.246	0.049	
25.275	-0.172	0.044	
25.280	0.497	0.029	
25.285	-0.090	0.050	
25.290	-0.310	0.052	
25.295	0.326	0.025	
25.300	0.194	0.032	
25.305	-0.339	0.047	
25.310	0.056	0.026	
25.315	0.448	0.021	
25.320	-0.247	0.047	
25.325	-0.174	0.041	
25.330	0.492	0.026	
25.335	-0.093	0.047	
25.340	-0.310	0.048	
25.345	0.338	0.023	
25.350	0.226	0.033	
25.355	-0.313	0.054	
25.360	0.133	0.042	
25.365	0.532	0.051	
25.370	-0.217	0.091	
25.375	-0.143	0.092	
25.380	0.549	0.077	
25.385	-0.038	0.098	
25.390	-0.271	0.100	
25.395	0.393	0.073	
25.400	0.247	0.082	
25.405	-0.329	0.097	
25.410	0.043	0.069	
25.415	0.405	0.050	
25.420	-0.279	0.058	
25.425	-0.201	0.035	
25.430	0.439	0.006	
25.435	-0.133	0.016	
25.440	-0.339	0.010	
25.445	0.273	-0.019	
25.450	0.136	-0.015	
25.455	-0.367	-0.001	
25.460	0.011	-0.022	
25.465	0.398	-0.025	
25.470	-0.277	0.002	
25.475	-0.203	-0.002	
25.480	0.476	-0.013	
25.485	0.023	0.020	
25.490	-0.081	0.052	
25.495	0.944	0.096	
25.500	0.864	0.223	
25.505	-0.031	0.366	
25.510	0.357	0.422	
25.515	0.540	0.429	
25.520	-0.253	0.407	
25.525	-0.194	0.314	
25.530	0.430	0.201	
25.535	-0.143	0.132	
25.540	-0.348	0.064	
25.545	0.241	-0.008	
25.550	0.082	-0.033	
25.555	-0.392	-0.038	
25.560	-0.034	-0.067	
25.565	0.335	-0.075	
25.570	-0.308	-0.050	
25.575	-0.220	-0.051	
25.580	0.399	-0.059	
25.585	-0.157	-0.032	
25.590	-0.349	-0.025	
25.595	0.259	-0.045	
25.600	0.108	-0.033	
25.605	-0.375	-0.017	
25.610	0.011	-0.035	
25.615	0.376	-0.036	
25.620	-0.287	-0.008	
25.625	-0.198	-0.011	
25.630	0.436	-0.022	
25.635	-0.134	0.002	
25.640	-0.328	0.006	
25.645	0.285	-0.017	
25.650	0.134	-0.007	
25.655	-0.357	0.008	
25.660	0.043	-0.011	
25.665	0.418	-0.012	
25.670	-0.264	0.019	
25.675	-0.169	0.017	
25.680	0.482	0.008	
25.685	-0.107	0.033	
25.690	-0.302	0.038	
25.695	0.352	0.017	
25.700	0.198	0.031	
25.705	-0.328	0.052	
25.710	0.104	0.036	
25.715	0.471	0.038	
25.720	-0.235	0.069	
25.725	-0.125	0.066	
25.730	0.572	0.056	
25.735	-0.047	0.086	
25.740	-0.249	0.095	
25.745	0.459	0.078	
25.750	0.300	0.100	
25.755	-0.270	0.129	
25.760	0.219	0.118	
25.765	0.584	0.126	
25.770	-0.177	0.162	
25.775	-0.066	0.158	
25.780	0.645	0.142	
25.785	-0.011	0.164	
25.790	-0.246	0.162	
25.795	0.416	0.127	
25.800	0.190	0.122	
25.805	-0.351	0.118	
25.810	0.003	0.071	
25.815	0.308	0.033	
25.820	-0.342	0.021	
25.825	-0.261	-0.018	
25.830	0.279	-0.061	
25.835	-0.235	-0.068	
25.840	-0.421	-0.087	
25.845	0.093	-0.126	
25.850	-0.064	-0.135	
25.855	-0.464	-0.138	
25.860	-0.125	-0.165	
25.865	0.175	-0.173	
25.870	-0.387	-0.153	
25.875	-0.287	-0.155	
25.880	0.256	-0.160	
25.885	-0.239	-0.134	
25.890	-0.410	-0.125	
25.895	0.137	-0.141	
25.900	-0.027	-0.130	
25.905	-0.435	-0.117	
25.910	-0.073	-0.133	
25.915	0.259	-0.132	
25.920	-0.343	-0.102	
25.925	-0.242	-0.100	
25.930	0.337	-0.103	
25.935	-0.200	-0.074	
25.940	-0.370	-0.067	
25.945	0.215	-0.084	
25.950	0.046	-0.072	
25.955	-0.396	-0.057	
25.960	-0.017	-0.075	
25.965	0.328	-0.074	
25.970	-0.314	-0.045	
25.975	-0.203	-0.046	
25.980	0.408	-0.052	
25.985	-0.160	-0.025	
25.990	-0.337	-0.018	
25.995	0.285	-0.037	
26.000	0.097	-0.024	
26.005	-0.370	-0.008	
26.010	0.029	-0.027	
26.015	0.370	-0.029	
26.020	-0.293	-0.002	
26.025	-0.183	-0.007	
26.030	0.447	-0.018	
26.035	-0.143	0.006	
26.040	-0.319	0.009	
26.045	0.312	-0.012	
26.050	0.110	-0.001	
26.055	-0.364	0.012	
26.060	0.053	-0.010	
26.065	0.390	-0.013	
26.070	-0.282	0.014	
26.075	-0.171	0.008	
26.080	0.466	-0.003	
26.085	-0.136	0.021	
26.090	-0.310	0.023	
26.095	0.326	0.001	
26.100	0.134	0.011	
26.105	-0.349	0.026	
26.110	0.084	0.006	
26.115	0.410	0.006	
26.120	-0.277	0.033	
26.125	-0.159	0.027	
26.130	0.485	0.014	
26.135	-0.128	0.036	
26.140	-0.302	0.037	
26.145	0.348	0.013	
26.150	0.143	0.023	
26.155	-0.345	0.038	
26.160	0.091	0.017	
26.165	0.415	0.015	
26.170	-0.274	0.041	
26.175	-0.151	0.033	
26.180	0.492	0.019	
26.185	-0.127	0.042	
26.190	-0.300	0.042	
26.195	0.348	0.017	
26.200	0.137	0.026	
26.205	-0.352	0.038	
26.210	0.081	0.015	
26.215	0.402	0.010	
26.220	-0.276	0.034	
26.225	-0.149	0.026	
26.230	0.498	0.013	
26.235	-0.125	0.038	
26.240	-0.299	0.041	
26.245	0.352	0.018	
26.250	0.142	0.028	
26.255	-0.345	0.042	
26.260	0.097	0.020	
26.265	0.418	0.018	
26.270	-0.271	0.044	
26.275	-0.149	0.036	
26.280	0.491	0.022	
26.285	-0.127	0.043	
26.290	-0.294	0.043	
26.295	0.360	0.019	
26.300	0.145	0.030	
26.305	-0.342	0.044	
26.310	0.107	0.023	
26.315	0.415	0.021	
26.320	-0.273	0.047	
26.325	-0.145	0.039	
26.330	0.500	0.024	
26.335	-0.125	0.046	
26.340	-0.285	0.047	
26.345	0.395	0.025	
26.350	0.194	0.042	
26.355	-0.305	0.064	
26.360	0.195	0.053	
26.365	0.488	0.064	
26.370	-0.239	0.101	
26.375	-0.104	0.096	
26.380	0.570	0.081	
26.385	-0.078	0.104	
26.390	-0.253	0.103	
26.395	0.430	0.076	
26.400	0.178	0.085	
26.405	-0.340	0.095	
26.410	0.087	0.063	
26.415	0.370	0.045	
26.420	-0.299	0.052	
26.425	-0.175	0.027	
26.430	0.437	0.001	
26.435	-0.163	0.012	
26.440	-0.322	0.006	
26.445	0.300	-0.022	
26.450	0.073	-0.015	
26.455	-0.372	-0.006	
26.460	0.056	-0.028	
26.465	0.357	-0.030	
26.470	-0.308	-0.004	
26.475	-0.168	-0.010	
26.480	0.576	-0.014	
26.485	0.137	0.038	
26.490	0.064	0.099	
26.495	1.026	0.170	
26.500	0.713	0.304	
26.505	-0.159	0.420	
26.510	0.232	0.428	
26.515	0.402	0.386	
26.520	-0.303	0.328	
26.525	-0.177	0.221	
26.530	0.407	0.116	
26.535	-0.192	0.064	
26.540	-0.346	0.011	
26.545	0.248	-0.046	
26.550	0.012	-0.058	
26.555	-0.404	-0.059	
26.560	-0.005	-0.086	
26.565	0.285	-0.089	
26.570	-0.332	-0.064	
26.575	-0.195	-0.066	
26.580	0.405	-0.069	
26.585	-0.188	-0.039	
26.590	-0.335	-0.030	
26.595	0.276	-0.048	
26.600	0.038	-0.036	
26.605	-0.380	-0.024	
26.610	0.047	-0.045	
26.615	0.335	-0.045	
26.620	-0.310	-0.018	
26.625	-0.168	-0.022	
26.630	0.447	-0.029	
26.635	-0.159	-0.001	
26.640	-0.308	0.005	
26.645	0.337	-0.014	
26.650	0.105	0.002	
26.655	-0.349	0.018	
26.660	0.099	-0.000	
26.665	0.389	0.002	
26.670	-0.282	0.030	
26.675	-0.140	0.024	
26.680	0.495	0.013	
26.685	-0.137	0.038	
26.690	-0.284	0.041	
26.695	0.386	0.020	
26.700	0.145	0.035	
26.705	-0.326	0.052	
26.710	0.161	0.035	
26.715	0.453	0.041	
26.720	-0.246	0.074	
26.725	-0.084	0.071	
26.730	0.599	0.065	
26.735	-0.066	0.098	
26.740	-0.221	0.108	
26.745	0.505	0.093	
26.750	0.261	0.116	
26.755	-0.264	0.142	
26.760	0.277	0.129	
26.765	0.561	0.138	
26.770	-0.194	0.172	
26.775	-0.023	0.165	
26.780	0.646	0.149	
26.785	-0.060	0.170	
26.790	-0.239	0.162	
26.795	0.421	0.123	
26.800	0.120	0.114	
26.805	-0.364	0.103	
26.810	0.037	0.052	
26.815	0.267	0.016	
26.820	-0.358	0.005	
26.825	-0.236	-0.033	
26.830	0.291	-0.070	
26.835	-0.259	-0.072	
26.840	-0.398	-0.088	
26.845	0.137	-0.122	
26.850	-0.096	-0.127	
26.855	-0.467	-0.129	
26.860	-0.095	-0.159	
26.865	0.149	-0.167	
26.870	-0.398	-0.150	
26.875	-0.253	-0.155	
26.880	0.271	-0.158	
26.885	-0.259	-0.129	
26.890	-0.390	-0.120	
26.895	0.177	-0.134	
26.900	-0.061	-0.120	
26.905	-0.433	-0.109	
26.910	-0.034	-0.127	
26.915	0.226	-0.126	
26.920	-0.363	-0.099	
26.925	-0.213	-0.101	
26.930	0.361	-0.103	
26.935	-0.217	-0.071	
26.940	-0.349	-0.062	
26.945	0.253	-0.077	
26.950	0.000	-0.062	
26.955	-0.393	-0.050	
26.960	0.032	-0.070	
26.965	0.300	-0.068	
26.970	-0.326	-0.040	
26.975	-0.172	-0.044	
26.980	0.415	-0.049	
26.985	-0.189	-0.021	
26.990	-0.323	-0.017	
26.995	0.303	-0.036	
27.000	0.038	-0.024	
27.005	-0.378	-0.014	
27.010	0.062	-0.036	
27.015	0.322	-0.038	
27.020	-0.317	-0.013	
27.025	-0.163	-0.021	
27.030	0.437	-0.030	
27.035	-0.174	-0.005	
27.040	-0.310	-0.001	
27.045	0.332	-0.021	
27.050	0.059	-0.007	
27.055	-0.361	0.005	
27.060	0.097	-0.016	
27.065	0.355	-0.015	
27.070	-0.300	0.012	
27.075	-0.139	0.005	
27.080	0.474	-0.004	
27.085	-0.159	0.022	
27.090	-0.294	0.025	
27.095	0.357	0.003	
27.100	0.090	0.016	
27.105	-0.348	0.028	
27.110	0.128	0.006	
27.115	0.380	0.008	
27.120	-0.288	0.035	
27.125	-0.122	0.027	
27.130	0.498	0.017	
27.135	-0.146	0.042	
27.140	-0.274	0.044	
27.145	0.399	0.023	
27.150	0.111	0.037	
27.155	-0.339	0.051	
27.160	0.148	0.029	
27.165	0.395	0.029	
27.170	-0.285	0.054	
27.175	-0.122	0.042	
27.180	0.497	0.027	
27.185	-0.146	0.048	
27.190	-0.277	0.046	
27.195	0.390	0.023	
27.200	0.102	0.035	
27.205	-0.342	0.046	
27.210	0.148	0.023	
27.215	0.390	0.023	
27.220	-0.284	0.049	
27.225	-0.116	0.039	
27.230	0.509	0.027	
27.235	-0.142	0.051	
27.240	-0.268	0.051	
27.245	0.399	0.029	
27.250	0.110	0.042	
27.255	-0.335	0.054	
27.260	0.158	0.031	
27.265	0.399	0.032	
27.270	-0.279	0.058	
27.275	-0.111	0.047	
27.280	0.509	0.034	
27.285	-0.142	0.056	
27.290	-0.267	0.055	
27.295	0.405	0.032	
27.300	0.110	0.045	
27.305	-0.339	0.056	
27.310	0.151	0.032	
27.315	0.386	0.030	
27.320	-0.285	0.053	
27.325	-0.113	0.041	
27.330	0.508	0.027	
27.335	-0.149	0.050	
27.340	-0.270	0.049	
27.345	0.404	0.027	
27.350	0.102	0.040	
27.355	-0.335	0.052	
27.360	0.183	0.030	
27.365	0.430	0.035	
27.370	-0.252	0.068	
27.375	-0.052	0.065	
27.380	0.599	0.063	
27.385	-0.105	0.099	
27.390	-0.239	0.105	
27.395	0.460	0.083	
27.400	0.171	0.096	
27.405	-0.303	0.108	
27.410	0.218	0.084	
27.415	0.421	0.082	
27.420	-0.284	0.102	
27.425	-0.127	0.080	
27.430	0.451	0.051	
27.435	-0.186	0.054	
27.440	-0.303	0.035	
27.445	0.329	-0.002	
27.450	0.030	-0.002	
27.455	-0.374	-0.001	
27.460	0.087	-0.029	
27.465	0.312	-0.033	
27.470	-0.319	-0.010	
27.475	-0.146	-0.019	
27.480	0.447	-0.027	
27.485	-0.188	-0.001	
27.490	-0.305	0.002	
27.495	0.383	-0.016	
27.500	0.267	0.011	
27.505	-0.104	0.060	
27.510	0.799	0.113	
27.515	1.055	0.235	
27.520	0.024	0.388	
27.525	0.088	0.446	
27.530	0.556	0.427	
27.535	-0.172	0.387	
27.540	-0.302	0.291	
27.545	0.325	0.170	
27.550	0.008	0.095	
27.555	-0.387	0.039	
27.560	0.053	-0.029	
27.565	0.268	-0.058	
27.570	-0.343	-0.050	
27.575	-0.177	-0.064	
27.580	0.378	-0.074	
27.585	-0.218	-0.049	
27.590	-0.325	-0.045	
27.595	0.293	-0.061	
27.600	-0.011	-0.046	
27.605	-0.386	-0.036	
27.610	0.070	-0.057	
27.615	0.287	-0.055	
27.620	-0.329	-0.029	
27.625	-0.149	-0.035	
27.630	0.434	-0.041	
27.635	-0.191	-0.012	
27.640	-0.296	-0.006	
27.645	0.348	-0.022	
27.650	0.035	-0.006	
27.655	-0.361	0.005	
27.660	0.128	-0.016	
27.665	0.346	-0.012	
27.670	-0.303	0.016	
27.675	-0.120	0.009	
27.680	0.489	0.001	
27.685	-0.159	0.030	
27.690	-0.264	0.034	
27.695	0.412	0.017	
27.700	0.096	0.036	
27.705	-0.325	0.051	
27.710	0.200	0.033	
27.715	0.412	0.040	
27.720	-0.267	0.072	
27.725	-0.061	0.065	
27.730	0.569	0.058	
27.735	-0.111	0.089	
27.740	-0.218	0.093	
27.745	0.508	0.076	
27.750	0.197	0.100	
27.755	-0.271	0.122	
27.760	0.306	0.109	
27.765	0.524	0.122	
27.770	-0.209	0.159	
27.775	0.029	0.154	
27.780	0.677	0.147	
27.785	-0.044	0.179	
27.790	-0.169	0.180	
27.795	0.570	0.157	
27.800	0.223	0.171	
27.805	-0.279	0.181	
27.810	0.242	0.148	
27.815	0.398	0.132	
27.820	-0.305	0.134	
27.825	-0.145	0.093	
27.830	0.386	0.047	
27.835	-0.241	0.033	
27.840	-0.357	-0.001	
27.845	0.198	-0.052	
27.850	-0.111	-0.071	
27.855	-0.456	-0.089	
27.860	-0.063	-0.132	
27.865	0.110	-0.150	
27.870	-0.421	-0.144	
27.875	-0.244	-0.159	
27.880	0.250	-0.168	
27.885	-0.294	-0.143	
27.890	-0.383	-0.137	
27.895	0.177	-0.150	
27.900	-0.107	-0.135	
27.905	-0.444	-0.125	
27.910	-0.024	-0.144	
27.915	0.172	-0.141	
27.920	-0.387	-0.117	
27.925	-0.201	-0.121	
27.930	0.334	-0.121	
27.935	-0.249	-0.089	
27.940	-0.337	-0.080	
27.945	0.264	-0.091	
27.950	-0.050	-0.073	
27.955	-0.406	-0.062	
27.960	0.052	-0.083	
27.965	0.248	-0.080	
27.970	-0.351	-0.055	
27.975	-0.159	-0.060	
27.980	0.398	-0.065	
27.985	-0.223	-0.036	
27.990	-0.313	-0.031	
27.995	0.319	-0.048	
28.000	-0.005	-0.032	
28.005	-0.372	-0.022	
28.010	0.105	-0.042	
28.015	0.294	-0.038	
28.020	-0.326	-0.012	
28.025	-0.136	-0.020	
28.030	0.431	-0.028	
28.035	-0.204	-0.003	
28.040	-0.294	-0.002	
28.045	0.349	-0.022	
28.050	0.008	-0.009	
28.055	-0.366	-0.001	
28.060	0.125	-0.024	
28.065	0.312	-0.022	
28.070	-0.319	0.003	
28.075	-0.120	-0.006	
28.080	0.456	-0.014	
28.085	-0.192	0.012	
28.090	-0.281	0.013	
28.095	0.373	-0.006	
28.100	0.033	0.008	
28.105	-0.352	0.018	
28.110	0.148	-0.005	
28.115	0.325	-0.003	
28.120	-0.313	0.021	
28.125	-0.110	0.010	
28.130	0.477	0.000	
28.135	-0.182	0.026	
28.140	-0.273	0.026	
28.145	0.395	0.006	
28.150	0.050	0.022	
28.155	-0.348	0.032	
28.160	0.163	0.009	
28.165	0.344	0.011	
28.170	-0.302	0.035	
28.175	-0.099	0.024	
28.180	0.486	0.014	
28.185	-0.171	0.038	
28.190	-0.264	0.038	
28.195	0.408	0.017	
28.200	0.055	0.032	
28.205	-0.343	0.041	
28.210	0.175	0.017	
28.215	0.349	0.019	
28.220	-0.302	0.042	
28.225	-0.096	0.030	
28.230	0.489	0.018	
28.235	-0.177	0.041	
28.240	-0.262	0.039	
28.245	0.421	0.018	
28.250	0.075	0.035	
28.255	-0.319	0.048	
28.260	0.244	0.031	
28.265	0.433	0.045	
28.270	-0.256	0.082	
28.275	-0.038	0.080	
28.280	0.561	0.075	
28.285	-0.130	0.103	
28.290	-0.218	0.101	
28.295	0.489	0.078	
28.300	0.119	0.093	
28.305	-0.319	0.102	
28.310	0.194	0.073	
28.315	0.329	0.063	
28.320	-0.322	0.071	
28.325	-0.122	0.042	
28.330	0.431	0.014	
28.335	-0.215	0.021	
28.340	-0.297	0.008	
28.345	0.346	-0.022	
28.350	-0.012	-0.015	
28.355	-0.370	-0.011	
28.360	0.120	-0.036	
28.365	0.279	-0.035	
28.370	-0.334	-0.012	
28.375	-0.127	-0.022	
28.380	0.427	-0.031	
28.385	-0.207	-0.005	
28.390	-0.230	-0.002	
28.395	0.706	0.002	
28.400	0.582	0.085	
28.405	0.096	0.201	
28.410	0.800	0.293	
28.415	0.736	0.397	
28.420	-0.221	0.469	
28.425	-0.076	0.428	
28.430	0.437	0.332	
28.435	-0.221	0.250	
28.440	-0.297	0.150	
28.445	0.332	0.050	
28.450	-0.034	0.008	
28.455	-0.387	-0.020	
28.460	0.084	-0.064	
28.465	0.239	-0.073	
28.470	-0.351	-0.054	
28.475	-0.145	-0.063	
28.480	0.396	-0.067	
28.485	-0.229	-0.037	
28.490	-0.302	-0.032	
28.495	0.326	-0.047	
28.500	-0.032	-0.031	
28.505	-0.375	-0.023	
28.510	0.119	-0.045	
28.515	0.280	-0.041	
28.520	-0.329	-0.015	
28.525	-0.117	-0.023	
28.530	0.439	-0.028	
28.535	-0.209	0.000	
28.540	-0.282	0.002	
28.545	0.375	-0.016	
28.550	0.009	0.000	
28.555	-0.355	0.010	
28.560	0.165	-0.012	
28.565	0.317	-0.007	
28.570	-0.306	0.019	
28.575	-0.081	0.011	
28.580	0.491	0.006	
28.585	-0.175	0.036	
28.590	-0.247	0.039	
28.595	0.442	0.023	
28.600	0.067	0.043	
28.605	-0.322	0.057	
28.610	0.229	0.037	
28.615	0.383	0.044	
28.620	-0.271	0.073	
28.625	-0.021	0.065	
28.630	0.587	0.062	
28.635	-0.122	0.097	
28.640	-0.191	0.103	
28.645	0.550	0.089	
28.650	0.178	0.116	
28.655	-0.261	0.138	
28.660	0.361	0.124	
28.665	0.512	0.139	
28.670	-0.209	0.175	
28.675	0.081	0.169	
28.680	0.680	0.164	
28.685	-0.072	0.194	
28.690	-0.165	0.190	
28.695	0.550	0.160	
28.700	0.116	0.164	
28.705	-0.323	0.157	
28.710	0.172	0.108	
28.715	0.255	0.077	
28.720	-0.367	0.062	
28.725	-0.171	0.013	
28.730	0.294	-0.033	
28.735	-0.297	-0.044	
28.740	-0.370	-0.072	
28.745	0.168	-0.113	
28.750	-0.160	-0.121	
28.755	-0.470	-0.131	
28.760	-0.052	-0.165	
28.765	0.070	-0.175	
28.770	-0.435	-0.163	
28.775	-0.230	-0.175	
28.780	0.223	-0.179	
28.785	-0.319	-0.153	
28.790	-0.374	-0.148	
28.795	0.186	-0.159	
28.800	-0.137	-0.142	
28.805	-0.442	-0.131	
28.810	0.001	-0.149	
28.815	0.134	-0.144	
28.820	-0.403	-0.122	
28.825	-0.183	-0.127	
28.830	0.323	-0.127	
28.835	-0.268	-0.095	
28.840	-0.326	-0.086	
28.845	0.283	-0.095	
28.850	-0.079	-0.075	
28.855	-0.401	-0.064	
28.860	0.087	-0.083	
28.865	0.215	-0.078	
28.870	-0.363	-0.054	
28.875	-0.140	-0.062	
28.880	0.395	-0.066	
28.885	-0.232	-0.037	
28.890	-0.296	-0.032	
28.895	0.344	-0.046	
28.900	-0.041	-0.028	
28.905	-0.375	-0.020	
28.910	0.126	-0.042	
28.915	0.253	-0.040	
28.920	-0.345	-0.018	
28.925	-0.111	-0.029	
28.930	0.437	-0.035	
28.935	-0.218	-0.007	
28.940	-0.277	-0.004	
28.945	0.366	-0.021	
28.950	-0.029	-0.006	
28.955	-0.364	0.000	
28.960	0.163	-0.024	
28.965	0.280	-0.021	
28.970	-0.328	0.003	
28.975	-0.098	-0.008	
28.980	0.450	-0.015	
28.985	-0.210	0.012	
28.990	-0.264	0.012	
28.995	0.399	-0.006	
29.000	-0.005	0.011	
29.005	-0.346	0.019	
29.010	0.192	-0.004	
29.015	0.312	0.002	
29.020	-0.313	0.028	
29.025	-0.073	0.017	
29.030	0.482	0.010	
29.035	-0.198	0.037	
29.040	-0.252	0.035	
29.045	0.430	0.015	
29.050	0.020	0.032	
29.055	-0.337	0.040	
29.060	0.212	0.016	
29.065	0.323	0.021	
29.070	-0.313	0.044	
29.075	-0.070	0.030	
29.080	0.495	0.020	
